,equity
2023-10-02,100000.0
2023-10-03,99869.74195048123
2023-10-04,99990.31417414456
2023-10-05,100043.89546778469
2023-10-06,100380.17829706936
2023-10-09,100757.94783700533
2023-10-10,100877.5587798459
2023-10-11,101125.65792798446
2023-10-12,101115.71497954828
2023-10-13,100354.979105307
2023-10-16,100761.82665944517
2023-10-17,100945.25158357216
2023-10-18,100059.27215518165
2023-10-19,99025.74045868457
2023-10-20,98318.32260734303
2023-10-23,98400.73998481495
2023-10-24,98551.20579251605
2023-10-25,97817.88780008152
2023-10-26,97343.75545781749
2023-10-27,97329.71710103648
2023-10-30,97428.66722530787
2023-10-31,97582.90666145747
2023-11-01,97963.41480514948
2023-11-02,98105.445995068
2023-11-03,98484.2626955456
2023-11-06,98552.42339217097
2023-11-07,98525.39471356684
2023-11-08,98685.62772014464
2023-11-09,98305.57053646419
2023-11-10,99387.96226379726
2023-11-13,99495.45493391922
2023-11-14,101397.36043159805
2023-11-15,100964.6565585359
2023-11-16,101338.27774012985
2023-11-17,101952.1203111378
2023-11-20,103431.39078734934
2023-11-21,102661.53331779063
2023-11-22,103400.05819499321
2023-11-24,103756.51609937538
2023-11-27,103877.80556718697
2023-11-28,104594.24470834708
2023-11-29,105367.41511791052
2023-11-30,105400.16610782447
2023-12-01,105887.6850656466
2023-12-04,106065.1396233095
2023-12-05,106020.22026124131
2023-12-06,104783.18442032565
2023-12-07,105866.22144513119
2023-12-08,107265.16761784542
2023-12-11,107932.99403761853
2023-12-12,108925.92723096606
2023-12-13,110678.80015434024
2023-12-14,110748.03985829683
2023-12-15,110866.50644345614
2023-12-18,111589.46599812838
2023-12-19,112938.64217139564
2023-12-20,110687.38372061477
2023-12-21,112844.34518263565
2023-12-22,112937.11055052505
2023-12-26,113239.77777245804
2023-12-27,114161.2653046617
2023-12-28,114053.59735176282
2023-12-29,112596.99038955882
2024-01-02,109507.63763760022
2024-01-03,107555.84142295543
2024-01-04,107849.81637953766
2024-01-05,107941.47793306426
2024-01-08,110502.99312994415
2024-01-09,111196.52773115128
2024-01-10,111839.83649274796
2024-01-11,112277.45464918106
2024-01-12,111644.20657816666
2024-01-16,112061.2597173671
2024-01-17,110933.35066477921
2024-01-18,112299.91212453034
2024-01-19,114254.51030148652
2024-01-22,115172.00002481868
2024-01-23,115121.74248650005
2024-01-24,115082.68997864178
2024-01-25,115833.47207926319
2024-01-26,115303.26206376027
2024-01-29,117079.09850670765
2024-01-30,115845.37927770069
2024-01-31,113760.04103845815
2024-02-01,115509.67530000294
2024-02-02,117931.4423345514
2024-02-05,117242.78298584284
2024-02-06,117121.49704464259
2024-02-07,119137.00015362086
2024-02-08,119803.6546641189
2024-02-09,120304.54084072413
2024-02-12,119675.35048461199
2024-02-13,118179.93419200959
2024-02-14,121569.14723446526
2024-02-15,123673.38337757745
2024-02-16,122530.08130314508
2024-02-20,120485.5704754809
2024-02-21,117940.26726319175
2024-02-22,122314.57833152825
2024-02-23,123231.92922073418
2024-02-26,125068.14888053948
2024-02-27,126537.12019020134
2024-02-28,126081.3928456884
2024-02-29,128323.0017304998
2024-03-01,132609.9772801977
2024-03-04,134574.560795487
2024-03-05,131862.07186162344
2024-03-06,133868.71989721814
2024-03-07,135673.4859055952
2024-03-08,134504.47477621594
2024-03-11,132063.34227461377
2024-03-12,134616.43481704235
2024-03-13,136455.81668277702
2024-03-14,135401.61012210196
2024-03-15,134169.35194236104
2024-03-18,135590.57274480915
2024-03-19,135565.9586888402
2024-03-20,138808.68041559914
2024-03-21,140934.86718126992
2024-03-22,140635.1480192826
2024-03-25,141122.3408369706
2024-03-26,140596.08660837868
2024-03-27,140290.65945002297
2024-03-28,140334.35705706337
2024-04-01,139966.96916147927
2024-04-02,139084.78926607827
2024-04-03,141349.63035111548
2024-04-04,138887.34162267385
2024-04-05,141732.1612145155
2024-04-08,141933.23064200574
2024-04-09,139956.18647645338
2024-04-10,139297.20358960624
2024-04-11,140977.47077437458
2024-04-12,137965.32274022108
2024-04-15,135465.90089575926
2024-04-16,136288.62323757628
2024-04-17,134299.3384645792
2024-04-18,133571.46693528083
2024-04-19,131667.04748645992
2024-04-22,131860.84343830316
2024-04-23,132344.41070357608
2024-04-24,131955.06512138247
2024-04-25,132671.08456482165
2024-04-26,132819.77249969717
2024-04-29,132902.41120537557
2024-04-30,132139.9910336379
2024-05-01,131871.5927250535
2024-05-02,134208.7895490158
2024-05-03,135086.8756964337
2024-05-06,136323.25430704467
2024-05-07,135264.32542329805
2024-05-08,135559.72180404264
2024-05-09,136858.66349715495
2024-05-10,136774.6591590146
2024-05-13,136336.67007136933
2024-05-14,137239.5853858994
2024-05-15,138848.3004528092
2024-05-16,137423.522660792
2024-05-17,137369.8724198456
2024-05-20,138558.96756116665
2024-05-21,138697.00422416104
2024-05-22,137483.1615724276
2024-05-23,137229.3752053499
2024-05-24,140142.4605343294
2024-05-28,140285.60310291767
2024-05-29,139829.8607347782
2024-05-30,138601.1715989652
2024-05-31,136856.3598873265
2024-06-03,136976.63323803322
2024-06-04,136454.92683179848
2024-06-05,139120.0323614268
2024-06-06,137909.62966061113
2024-06-07,137368.25420628686
2024-06-10,139536.65331524986
2024-06-11,139101.83408900176
2024-06-12,141366.75784090481
2024-06-13,140982.37524607146
2024-06-14,139731.35296238083
2024-06-17,141025.72654409785
2024-06-18,141992.86407537837
2024-06-20,140012.2452933349
2024-06-21,139491.97649536916
2024-06-24,137860.66930510543
2024-06-25,140369.15952792414
2024-06-26,139205.33462304744
2024-06-27,139430.32018819707
2024-06-28,138506.9777832509
2024-07-01,138774.50429493882
2024-07-02,139212.95673520066
2024-07-03,140588.22746757677
2024-07-05,140921.93412731466
2024-07-08,141222.33674953756
2024-07-09,142036.6618706618
2024-07-10,143477.65348475942
2024-07-11,140720.8620032607
2024-07-12,142187.40598269185
2024-07-15,143572.99118560896
2024-07-16,144366.10891379643
2024-07-17,137530.50515676517
2024-07-18,136698.83853751223
2024-07-19,136593.63459700614
2024-07-22,137634.97103816617
2024-07-23,137800.4675133859
2024-07-24,134607.52270639275
2024-07-25,133820.61174237664
2024-07-26,134861.28127916524
2024-07-29,134354.52140863606
2024-07-30,133906.748965138
2024-07-31,134542.41444758594
2024-08-01,132672.17657093727
2024-08-02,129972.86151957216
2024-08-05,128153.5014342964
2024-08-06,128917.1608966276
2024-08-07,128304.71694199304
2024-08-08,129940.55266587
2024-08-09,130291.98935776054
2024-08-12,130088.85471802055
2024-08-13,130606.74078186191
2024-08-14,131274.97469110263
2024-08-15,131909.1995208707
2024-08-16,132670.80398201977
2024-08-19,133487.82328128646
2024-08-20,133558.19292034928
2024-08-21,134181.11935581986
2024-08-22,134086.73043217484
2024-08-23,134987.36357083145
2024-08-26,134689.43240322892
2024-08-27,135465.5267483217
2024-08-28,135035.34661640946
2024-08-29,136155.88623585526
2024-08-30,136753.36835064713
2024-09-03,134654.70356678788
2024-09-04,134832.7219360121
2024-09-05,134049.09589504224
2024-09-06,131965.365241574
2024-09-09,133995.62191566778
2024-09-10,134016.52495449857
2024-09-11,134928.18177288846
2024-09-12,136434.09559499007
2024-09-13,137981.17595255686
2024-09-16,139585.04056002485
2024-09-17,139820.61035754072
2024-09-18,139756.19474436628
2024-09-19,140759.12756754743
2024-09-20,142235.04435374128
2024-09-23,143191.98723627912
2024-09-24,143170.5792200743
2024-09-25,143909.5604118391
2024-09-26,142708.68099182044
2024-09-27,143217.96657521735
2024-09-30,144134.84666593085
2024-10-01,143587.9870990516
2024-10-02,144612.12580465613
2024-10-03,145210.29151428604
2024-10-04,147108.28950140765
2024-10-07,145073.87029018154
2024-10-08,146158.76343153813
2024-10-09,146874.61222106448
2024-10-10,146504.264429854
2024-10-11,148607.65999636237
2024-10-14,149577.98276171272
2024-10-15,148283.28217569893
2024-10-16,150082.59301249092
2024-10-17,149585.71375040596
2024-10-18,150532.76718908089
2024-10-21,151431.3329964234
2024-10-22,150425.74529942512
2024-10-23,149328.411352324
2024-10-24,150636.5617853837
2024-10-25,150324.9564127488
2024-10-28,151879.5592419313
2024-10-29,153179.78762384353
2024-10-30,152389.92978483194
2024-10-31,149255.79241801298
2024-11-01,148271.21564674407
2024-11-04,147590.1811468099
2024-11-05,151835.7661478017
2024-11-06,158088.57451609746
2024-11-07,159461.4838265609
2024-11-08,162662.79582177347
2024-11-11,167245.90994486614
2024-11-12,165693.26534587657
2024-11-13,167126.25611207786
2024-11-14,165000.78990148823
2024-11-15,165168.5529473696
2024-11-18,165861.87678727525
2024-11-19,168893.8948153327
2024-11-20,169002.6426981757
2024-11-21,171998.1789206336
2024-11-22,174333.80764377813
2024-11-25,174419.7214506934
2024-11-26,174608.83520687322
2024-11-27,173988.92207897405
2024-11-29,175387.6000746558
2024-12-02,173254.5396250556
2024-12-03,174389.43549526433
2024-12-04,177206.1276339362
2024-12-05,176455.2415427039
2024-12-06,177767.64630697088
2024-12-09,172535.19087958563
2024-12-10,170743.73877508822
2024-12-11,173528.11894891635
2024-12-12,172715.4281107816
2024-12-13,174409.37121949284
2024-12-16,175854.4698780679
2024-12-17,172259.1836852255
2024-12-18,164386.3256379217
2024-12-19,164260.12830923212
2024-12-20,166213.38315525476
2024-12-23,166440.78409519617
2024-12-24,167663.5658135647
2024-12-26,168338.24402096216
2024-12-27,166425.23523862855
2024-12-30,165091.17536531464
2024-12-31,164144.61539064423
2025-01-02,164117.35258709162
2025-01-03,165687.31139319314
2025-01-06,166338.59235828105
2025-01-07,163622.1006267409
2025-01-08,163707.8689827132
2025-01-10,162026.4582587346
2025-01-13,161098.2933866054
2025-01-14,161832.899588498
2025-01-15,163030.36238757026
2025-01-16,163408.03673490608
2025-01-17,164606.42441640937
2025-01-21,166726.69112054148
2025-01-22,168832.1135410432
2025-01-23,169669.2030521119
2025-01-24,170950.05102658636
2025-01-27,159837.35208356197
2025-01-28,162038.99820075923
2025-01-29,162573.45722751803
2025-01-30,163983.14215149847
2025-01-31,162838.25982826605
2025-02-03,162701.2041605259
2025-02-04,167458.0111866869
2025-02-05,169150.05098201433
2025-02-06,170698.1059817967
2025-02-07,169987.46020043
2025-02-10,170645.36046702164
2025-02-11,169052.1411779028
2025-02-12,170423.2075608679
2025-02-13,173290.78652673643
2025-02-14,173650.97073187827
2025-02-18,174276.94078078272
2025-02-19,172224.037545673
2025-02-20,167372.5697697748
2025-02-21,162012.62143520068
2025-02-24,160982.36286150437
2025-02-25,159071.34965220338
2025-02-26,158963.3193163036
2025-02-27,158374.2922126506
2025-02-28,159670.24607007246
2025-03-03,159040.35334804218
2025-03-04,156963.70312848673
2025-03-05,157390.32659882426
2025-03-06,155414.5643637016
2025-03-07,155583.43123297344
2025-03-10,155019.79457066397
2025-03-11,153977.33366661053
2025-03-12,153838.26978131777
2025-03-13,153758.6639653845
2025-03-14,154035.9998227759
2025-03-17,154402.20257491185
2025-03-18,153685.80090024107
2025-03-19,153640.89309384458
2025-03-20,153610.82572629087
2025-03-21,153279.02827194592
2025-03-24,153678.3677265968
2025-03-25,153535.500480483
2025-03-26,153488.67049391073
2025-03-27,153668.4619711141
2025-03-28,153577.7622151961
2025-03-31,154003.73160110612
2025-04-01,153999.24434600968
2025-04-02,153928.6167928953
2025-04-03,154165.7038651282
2025-04-04,150079.03955777886
2025-04-07,149166.28362157213
2025-04-08,149103.8675220238
2025-04-09,149247.65604865138
2025-04-10,149435.9985092837
2025-04-11,149697.41666113917
2025-04-14,149934.32425434008
2025-04-15,149804.96852619067
2025-04-16,149713.24141498364
2025-04-17,149862.1729793147
2025-04-21,149172.62201176333
2025-04-22,149700.21235575405
2025-04-23,149377.852952143
2025-04-24,149598.72910418155
2025-04-25,149320.7808389469
2025-04-28,149418.322281818
2025-04-29,150042.75814406166
2025-04-30,151409.00274085812
2025-05-01,151634.23000744285
2025-05-02,154344.38614287987
2025-05-05,154413.7928825115
2025-05-06,153879.56172764424
2025-05-07,154734.44220582154
2025-05-08,155679.5417829593
2025-05-09,154816.47379758346
2025-05-12,155433.3643026857
2025-05-13,158539.52407203376
2025-05-14,159244.006639501
2025-05-15,159882.63434793605
2025-05-16,161394.43705194606
2025-05-19,163122.9187413992
2025-05-20,162851.692227857
2025-05-21,160409.84452560492
2025-05-22,160619.97599631196
2025-05-23,160880.09511086962
2025-05-27,164072.80864999315
2025-05-28,164065.7774801018
2025-05-29,162406.9587049248
2025-05-30,164686.8932637932
2025-06-02,166653.19707009813
2025-06-03,167988.54133126757
2025-06-04,168184.31725933764
2025-06-05,168350.70737095663
2025-06-06,170376.4613573153
2025-06-09,168919.85434104942
2025-06-10,167375.37600887133
2025-06-11,169488.70027863147
2025-06-12,168462.15381130815
2025-06-13,167203.76341844746
2025-06-16,169712.81916502948
2025-06-17,168878.4940809045
2025-06-18,170234.8464597497
2025-06-20,170656.11713189937
2025-06-23,172079.19300975994
2025-06-24,174676.2412980723
2025-06-25,173323.28527757185
2025-06-26,176116.41596147078
2025-06-27,176921.1226188804
2025-06-30,180153.67828300397
2025-07-01,175249.29915550153
2025-07-02,176628.90942100447
2025-07-03,178549.84211767936
2025-07-07,180252.5199283483
2025-07-08,177755.92177618766
2025-07-09,179766.37575803604
2025-07-10,178805.4815088295
2025-07-11,177893.48802692004
2025-07-14,180807.96096854334
2025-07-15,180146.4281985093
2025-07-16,182617.72219302377
2025-07-17,185605.1098321229
2025-07-18,187040.06894182134
2025-07-21,186437.36394531454
2025-07-22,182358.66302576044
2025-07-23,184974.8448481863
2025-07-24,184838.7256687968
2025-07-25,186764.40743091295
2025-07-28,187434.45823676823
2025-07-29,186247.38031699404
2025-07-30,189714.76579305684
2025-07-31,190285.575071223
2025-08-01,184694.62158448403
2025-08-04,188118.63291493562
2025-08-05,186823.35943194898
2025-08-06,191617.60856716352
2025-08-07,190708.35954543742
2025-08-08,191293.04426960234
2025-08-11,190094.55362217192
2025-08-12,193510.44896178058
2025-08-13,191753.51305052754
2025-08-14,188966.33255738212
2025-08-15,188094.0321318722
2025-08-18,188286.38269112512
2025-08-19,183286.70739562667
2025-08-20,181572.4473407797
2025-08-21,181808.7619524588
2025-08-22,184502.9437113394
2025-08-25,184841.02064859527
2025-08-26,186116.85116948307
2025-08-27,185818.96852525126
2025-08-28,188879.22723312175
2025-08-29,186803.9247040278
2025-09-02,186435.78741879732
2025-09-03,186670.64297383674
2025-09-04,190948.95980683638
2025-09-05,191244.90684181717
2025-09-08,192892.55481583145
2025-09-09,193746.81767365386
2025-09-10,196726.48387335846
2025-09-11,199247.8332023532
2025-09-12,197604.85719894286
2025-09-15,199897.0064184558
2025-09-16,198924.04938345213
2025-09-17,199885.69426623077
2025-09-18,202663.10843158263
2025-09-19,204982.34807617875
2025-09-22,205269.02649719926
2025-09-23,203238.99701945143
2025-09-24,200172.25414866983
2025-09-25,198434.68358650725
2025-09-26,199848.83119060652
2025-09-29,203577.0104367041
2025-09-30,203687.67773885862
2025-10-01,205100.74451712467
2025-10-02,206389.83405386785
2025-10-03,205279.4058034553
2025-10-06,206139.1737542299
2025-10-07,205221.64826000627
2025-10-08,209169.28879295042
2025-10-09,208908.7200525177
2025-10-10,201102.02250868574
2025-10-13,205406.1396313359
2025-10-14,203143.6756487208
2025-10-15,205915.28856728075
2025-10-16,204703.03983402945
2025-10-17,203895.95555174185
2025-10-20,206061.63452290272
2025-10-21,204105.70958546374
2025-10-22,200971.25676582265
2025-10-23,206023.38023231435
2025-10-24,210659.6262284081
2025-10-27,213865.66010230698
2025-10-28,213923.29175295524
2025-10-29,219230.73024096183
2025-10-30,214602.99424860568
2025-10-31,216633.74822972773
2025-11-03,217502.57209764386
2025-11-04,209697.7204550352
2025-11-05,215805.18298689555
2025-11-06,212586.9406112858
2025-11-07,211186.2016849304
2025-11-10,216244.29660715658
2025-11-11,213030.89578064327
2025-11-12,213205.42717439355
2025-11-13,203868.7920019497
2025-11-14,203768.68650864923
2025-11-17,201658.9053223482
2025-11-18,200770.4482910982
2025-11-19,201278.57294777545
2025-11-20,195169.95672364396
2025-11-21,196947.24176819963
2025-11-24,200252.95651034926
2025-11-25,201443.008101098
2025-11-26,203194.01853873295
2025-11-28,204706.94677570104
2025-12-01,202795.17157228076
2025-12-02,201887.43354070658
2025-12-03,201108.1769631438
2025-12-04,202188.0758932612
2025-12-05,203728.79685601784
2025-12-08,204893.57517839578
2025-12-09,206553.26083519883
2025-12-10,210632.06470677553
2025-12-11,211819.4898849181
2025-12-12,203673.27817677843
2025-12-15,204064.52104329455
2025-12-16,203010.279098521
2025-12-17,198580.24781312587
2025-12-18,201920.04267488123
2025-12-19,205745.4665693735
2025-12-22,209045.53508746915
2025-12-23,208662.08933310513
2025-12-24,209481.3103130301
2025-12-26,209250.52051047882
2025-12-29,207485.95600217802
2025-12-30,206564.7941173361
2025-12-31,204430.57258250823
2026-01-02,209896.44119227995
2026-01-05,212252.1199570781
2026-01-06,219791.35853808967
2026-01-07,216327.8764400062
2026-01-08,212789.11220740803
2026-01-09,216749.35090782813
2026-01-12,220542.73981318797
2026-01-13,221846.79044978463
2026-01-14,220750.04822587717
2026-01-15,223300.258717942
2026-01-16,225153.28837079307
2026-01-20,222939.501884609
2026-01-21,227090.0179373297
2026-01-22,226717.80975443922
2026-01-23,225755.287120858
2026-01-26,225483.92721662216
2026-01-27,230635.25422309188
2026-01-28,235165.30767952427
2026-01-29,235008.91715701058
2026-01-30,227013.12040273324
2026-02-02,230856.4867336512
2026-02-03,232211.92618483253
2026-02-04,225175.93184919655
2026-02-05,221572.95358687112
2026-02-06,227544.6359660359
2026-02-09,231257.75804766128
2026-02-10,227654.83463392738
2026-02-11,230936.0802791619
2026-02-12,227678.34330584013
2026-02-13,231122.25505822868
2026-02-17,231796.2277402355
2026-02-18,234042.8990420212
2026-02-19,234925.27273858475
2026-02-20,236356.2386346251
2026-02-23,236310.65535947587
2026-02-24,238047.5326015642
2026-02-25,240237.26227018144
2026-02-26,238627.09995290544
2026-02-27,238195.8940983089
2026-03-02,239902.20690657926
2026-03-03,230584.82879321344
2026-03-04,232955.82040849543
2026-03-05,226494.2919469152
2026-03-06,220849.14761666133
2026-03-09,224542.66512321495
2026-03-10,224546.36203483603
2026-03-11,225697.23979580894
2026-03-12,223354.17319107612
2026-03-13,223664.33672101385
2026-03-16,228446.47335987922
2026-03-17,230405.67194929323
2026-03-18,231235.8970371152
2026-03-19,235809.92952509978
2026-03-20,228461.46165354864
2026-03-23,229421.77556664677
2026-03-24,234884.10049825688
2026-03-25,234863.01274734284
2026-03-26,227710.14422220807
2026-03-27,228676.21450800519
2026-03-30,221039.50249498233
2026-03-31,222740.24078004702
2026-04-01,222422.37499513646
2026-04-02,226571.82034673082
2026-04-06,226262.83760490222
2026-04-07,228278.87445844835
2026-04-08,231310.66064472168
2026-04-09,231377.4725291504
2026-04-10,232697.20776723727
2026-04-13,236084.83302663668
2026-04-14,237590.94110082492
2026-04-15,235255.4901645885
2026-04-16,239557.66216561833
2026-04-17,236951.29329667913
2026-04-20,238691.840491255
2026-04-21,240225.10608711577
2026-04-22,245225.5790613391
2026-04-23,247866.11243612546
2026-04-24,248897.1114320355
2026-04-27,249758.96779962664
2026-04-28,242799.14718847064
2026-04-29,248710.8786142601
2026-04-30,255487.42673027632
2026-05-01,256777.36644280073
2026-05-04,258609.77548515913
2026-05-05,264742.98266408977
2026-05-06,274734.4096841104
2026-05-07,266040.556574754
2026-05-08,274508.44343909115
2026-05-11,282138.5302812265
2026-05-12,274535.54141988367
2026-05-13,278388.3267030722
2026-05-14,279558.49465134495
2026-05-15,271511.1937587781
2026-05-18,263793.3391221084
2026-05-19,261379.05711293008
2026-05-20,264828.1444304363
2026-05-21,266510.71863189817
2026-05-22,270673.3173880432
2026-05-26,277560.5189117995
2026-05-27,275456.4625712457
2026-05-28,276618.5234655273
2026-05-29,281363.3805645056
2026-06-01,285874.92709618283
2026-06-02,295163.50416954706
2026-06-03,296261.3600426391
2026-06-04,292520.87954572996
2026-06-05,272077.8701532867
2026-06-08,277122.94777093205
2026-06-09,271067.72146826994
2026-06-10,264802.37176937703
2026-06-11,275911.81428557873
2026-06-12,280722.90622626495
2026-06-15,288584.74232321995
2026-06-16,281606.9695794138
2026-06-17,282172.9077600555
2026-06-18,290575.7682333465
2026-06-22,296269.69529566646
2026-06-23,280610.3963016473
2026-06-24,280043.85486527847
2026-06-25,285819.60587014654
2026-06-26,274396.6626674198
2026-06-29,285596.09707751503
2026-06-30,293682.9356395062
2026-07-01,279714.00503286166
2026-07-02,266201.2687830399
2026-07-06,269318.6656450699
2026-07-07,260576.62181098055
2026-07-08,260483.6084709842
2026-07-09,266354.20003072236
2026-07-10,264225.730178458
2026-07-13,259653.56157556793
2026-07-14,264606.94412168866
2026-07-15,261209.19675740035
2026-07-16,258859.56614481896
2026-07-17,257524.70212653436
2026-07-20,256056.12661544353
2026-07-21,256543.59492345742
2026-07-22,255369.20753021838
2026-07-23,253396.95388169223
2026-07-24,252569.74016898018
2026-07-27,251322.96574569092
2026-07-28,251207.9752479413
2026-07-29,250191.82772147478
2026-07-30,250951.58312029016
2026-07-31,249794.3956095873
2026-08-03,249526.0194552294
2026-08-04,252873.41972751822
2026-08-05,251525.0526435796
2026-08-06,247933.98792736966
2026-08-07,249710.21867840725
2026-08-10,253862.25036537135
2026-08-11,255237.1094451443
2026-08-12,257443.0027186276
2026-08-13,260443.86188381925
2026-08-14,258477.8248961636
2026-08-17,258174.86859997525
2026-08-18,256234.06962260298
2026-08-19,256105.80071892258
2026-08-20,254723.57069548508
2026-08-21,257449.00883177656
2026-08-24,255471.31017993635
2026-08-25,255809.3303109941
2026-08-26,257350.4390581407
2026-08-27,259366.97521648117
2026-08-28,257064.869152379
2026-08-31,257360.25458748336
2026-09-01,254157.13490911957
2026-09-02,253793.3011344003
2026-09-03,256296.40493785945
2026-09-04,253348.09918640042
2026-09-08,251329.42474537928
2026-09-09,250209.9861243313
2026-09-10,247445.6132037533
2026-09-11,250181.70509992883
2026-09-14,247995.86615238857
2026-09-15,251245.49042008875
2026-09-16,252457.11434738062
2026-09-17,257033.78629597375
2026-09-18,255100.46241764733
2026-09-21,256645.56063049982
2026-09-22,257180.84071143245
2026-09-23,258041.46760430047
2026-09-24,260570.11468877314
2026-09-25,259410.0990800695
2026-09-28,258611.28648938655
2026-09-29,259618.63613690852
2026-09-30,260449.51638593193
2026-10-01,262943.80525495054
