,equity
2023-10-02,100000.0
2023-10-03,99869.74196223241
2023-10-04,99990.31462840062
2023-10-05,100043.8960097788
2023-10-06,100380.17831644994
2023-10-09,100757.94896071249
2023-10-10,100877.55974715047
2023-10-11,101125.65884944264
2023-10-12,101115.71517226937
2023-10-13,100354.98043243626
2023-10-16,100761.82668576267
2023-10-17,100945.24931928651
2023-10-18,100059.27213775269
2023-10-19,99025.74102438951
2023-10-20,98318.32099485582
2023-10-23,98400.74064207262
2023-10-24,98551.20500849717
2023-10-25,97817.88886237612
2023-10-26,97343.75524654279
2023-10-27,97329.7161573399
2023-10-30,97428.66667071042
2023-10-31,97582.9058474606
2023-11-01,97963.41412085232
2023-11-02,98105.44554728207
2023-11-03,98484.26188154874
2023-11-06,98552.42294438503
2023-11-07,98525.39347995329
2023-11-08,98685.62653993681
2023-11-09,98329.42093105773
2023-11-10,99258.37534733275
2023-11-13,99402.53869914946
2023-11-14,100926.83607240535
2023-11-15,100361.03641267635
2023-11-16,100259.40904422618
2023-11-17,100749.37153192378
2023-11-20,101562.60058351375
2023-11-21,101172.8257555566
2023-11-22,101521.55258699275
2023-11-24,101747.9447884164
2023-11-27,101718.13737817622
2023-11-28,102286.23188920833
2023-11-29,103003.81057437602
2023-11-30,102747.13589867108
2023-12-01,103180.5641671037
2023-12-04,103234.56438549512
2023-12-05,103506.54513176435
2023-12-06,102272.68573817563
2023-12-07,103026.01420627374
2023-12-08,103725.42138515253
2023-12-11,104248.38828353662
2023-12-12,104806.36023314447
2023-12-13,106174.09419997186
2023-12-14,106449.11158385247
2023-12-15,106714.94421309442
2023-12-18,107345.75114649744
2023-12-19,108052.06902617426
2023-12-20,106240.29154291505
2023-12-21,107371.40852434149
2023-12-22,106798.99757081976
2023-12-26,107110.03232016545
2023-12-27,107603.12011841472
2023-12-28,107460.61805255589
2023-12-29,106574.92941768345
2024-01-02,105191.03834827122
2024-01-03,103813.19268245883
2024-01-04,104024.90149050095
2024-01-05,104017.43103914597
2024-01-08,106153.38098488742
2024-01-09,107132.23639479818
2024-01-10,107681.76502410116
2024-01-11,108177.80885497274
2024-01-12,107967.01869765462
2024-01-16,108164.30135977743
2024-01-17,107188.27996035726
2024-01-18,107985.33282104452
2024-01-19,111034.86071792562
2024-01-22,111878.99562469442
2024-01-23,111988.80979934652
2024-01-24,112312.40676895101
2024-01-25,112500.35966125448
2024-01-26,112466.5073625179
2024-01-29,113983.55084625204
2024-01-30,113788.93789291341
2024-01-31,112414.15356539877
2024-02-01,114039.60575985722
2024-02-02,115238.34084721073
2024-02-05,115668.15748722412
2024-02-06,115851.22171909668
2024-02-07,117517.19463856079
2024-02-08,118442.22012073852
2024-02-09,119978.28379566528
2024-02-12,119644.1328175769
2024-02-13,118437.33962800934
2024-02-14,122339.45980056145
2024-02-15,124442.21253379204
2024-02-16,121879.71687123101
2024-02-20,120471.1441799347
2024-02-21,117747.12242494506
2024-02-22,120384.96701388186
2024-02-23,122672.84643606967
2024-02-26,124102.8180032236
2024-02-27,125922.21888212985
2024-02-28,125390.0810437662
2024-02-29,126848.59648375338
2024-03-01,130752.82009558505
2024-03-04,132001.66249518222
2024-03-05,128821.10186280857
2024-03-06,129998.08927581192
2024-03-07,131543.1753735292
2024-03-08,131338.42496344924
2024-03-11,129480.58892867446
2024-03-12,130752.77906506667
2024-03-13,132570.99928769242
2024-03-14,131546.005161372
2024-03-15,130899.3053473919
2024-03-18,131266.16845208855
2024-03-19,131185.5167585766
2024-03-20,133752.22290847893
2024-03-21,135281.39166114922
2024-03-22,134776.89009712334
2024-03-25,135742.44725463982
2024-03-26,135549.71364639397
2024-03-27,135582.4744763195
2024-03-28,135447.4679341137
2024-04-01,134791.2099213421
2024-04-02,133876.47796486015
2024-04-03,135760.60116050835
2024-04-04,134453.4202697613
2024-04-05,135929.6698169879
2024-04-08,136110.8751533936
2024-04-09,135040.78833061468
2024-04-10,134497.4102220268
2024-04-11,135837.15575124352
2024-04-12,133506.8871225381
2024-04-15,131669.6270506692
2024-04-16,132228.78904178858
2024-04-17,131097.48496834558
2024-04-18,130334.74262825769
2024-04-19,128613.38364418226
2024-04-22,128878.09736641127
2024-04-23,129703.65667942131
2024-04-24,129173.67507954086
2024-04-25,129717.41141852847
2024-04-26,130155.96129316866
2024-04-29,130146.90267125303
2024-04-30,129329.2978757971
2024-05-01,128977.33505002195
2024-05-02,131271.55699499548
2024-05-03,132339.67467533436
2024-05-06,133527.73014293995
2024-05-07,132708.9516150811
2024-05-08,132928.1282599328
2024-05-09,134416.20348767022
2024-05-10,134115.00070027093
2024-05-13,133801.95126560907
2024-05-14,134390.35279301385
2024-05-15,135662.0362551568
2024-05-16,134425.4757437359
2024-05-17,134089.51022090725
2024-05-20,135085.6495145779
2024-05-21,134976.8614515286
2024-05-22,133698.45841702845
2024-05-23,133931.8400325488
2024-05-24,135844.88550970246
2024-05-28,136111.38977262666
2024-05-29,136098.0935384958
2024-05-30,135369.78218099763
2024-05-31,133560.90298864534
2024-06-03,133596.7116872995
2024-06-04,133091.46790328767
2024-06-05,135096.5464439843
2024-06-06,134387.85044622305
2024-06-07,133549.15849908034
2024-06-10,135073.49336455885
2024-06-11,134456.81551328243
2024-06-12,136315.08287703578
2024-06-13,135607.52330824916
2024-06-14,134923.56081145525
2024-06-17,135457.10779566382
2024-06-18,136060.72540659521
2024-06-20,134828.28871531104
2024-06-21,134297.30870404915
2024-06-24,132854.34617387492
2024-06-25,134939.4938489733
2024-06-26,134047.50243938164
2024-06-27,134263.0029449138
2024-06-28,133463.99725377734
2024-07-01,133710.51407386095
2024-07-02,134008.00318516267
2024-07-03,135188.42146290315
2024-07-05,135101.96419514192
2024-07-08,134900.3721617557
2024-07-09,135601.2184771396
2024-07-10,136643.17360041538
2024-07-11,134515.215979108
2024-07-12,135691.83176951326
2024-07-15,136727.5473387897
2024-07-16,137147.72150192515
2024-07-17,131437.31503073373
2024-07-18,130920.4120442872
2024-07-19,130885.72832991922
2024-07-22,131770.9997668161
2024-07-23,131639.17515705962
2024-07-24,129005.07228278715
2024-07-25,128124.43434538906
2024-07-26,128952.01473660862
2024-07-29,128452.15906186496
2024-07-30,128197.32406487667
2024-07-31,128828.35088876265
2024-08-01,126958.66034599308
2024-08-02,124676.91972703094
2024-08-05,123023.28104880516
2024-08-06,123841.14331515357
2024-08-07,123199.03574631325
2024-08-08,124848.71476242653
2024-08-09,125143.0180437223
2024-08-12,125026.05916997352
2024-08-13,125749.36439153114
2024-08-14,126359.62068959633
2024-08-15,126701.33813115516
2024-08-16,127280.89203282753
2024-08-19,127999.27891560951
2024-08-20,128061.96289845863
2024-08-21,128312.81126042762
2024-08-22,128279.87234898964
2024-08-23,128746.1373293058
2024-08-26,128584.89293309608
2024-08-27,129191.96585103431
2024-08-28,128957.47835179725
2024-08-29,129372.11087056556
2024-08-30,129427.82089635292
2024-09-03,128371.49234871498
2024-09-04,128633.0024607107
2024-09-05,127984.377331011
2024-09-06,126813.3387510519
2024-09-09,128045.24028247847
2024-09-10,128255.81851428999
2024-09-11,128161.00772327436
2024-09-12,128710.08643573774
2024-09-13,129600.41998523725
2024-09-16,130318.06351703657
2024-09-17,129940.07197040571
2024-09-18,130033.92979663862
2024-09-19,130449.70434803022
2024-09-20,130621.52936786665
2024-09-23,131084.75252765667
2024-09-24,131008.61696094526
2024-09-25,130612.06859058393
2024-09-26,130088.58464283003
2024-09-27,129888.52354663862
2024-09-30,130371.93622821821
2024-10-01,130227.84624756635
2024-10-02,130894.67584592069
2024-10-03,130767.58185107817
2024-10-04,131423.49776108182
2024-10-07,130322.53369639981
2024-10-08,131676.81355784263
2024-10-09,132131.67635081138
2024-10-10,131912.8768509945
2024-10-11,133580.9114332535
2024-10-14,135395.82293990633
2024-10-15,134712.61279204866
2024-10-16,136409.43449309847
2024-10-17,135514.4642858841
2024-10-18,136030.04513457796
2024-10-21,135812.30388930818
2024-10-22,135026.62282217716
2024-10-23,134446.4752703965
2024-10-24,135220.7312671006
2024-10-25,134920.51213489845
2024-10-28,135813.86840173183
2024-10-29,135922.34294625698
2024-10-30,135226.91117974697
2024-10-31,134014.41453971402
2024-11-01,133580.6665139877
2024-11-04,132960.2559796343
2024-11-05,137305.90856426154
2024-11-06,141534.99946272955
2024-11-07,143917.71659208927
2024-11-08,151023.38393904362
2024-11-11,152643.44565703068
2024-11-12,150878.58673255405
2024-11-13,152513.47029968043
2024-11-14,151733.38753191676
2024-11-15,152756.67234218898
2024-11-18,154037.78603999293
2024-11-19,156930.90654166148
2024-11-20,156927.76568015025
2024-11-21,158849.17984524425
2024-11-22,160244.32488974076
2024-11-25,159800.45546682816
2024-11-26,160243.14174612504
2024-11-27,159402.72148474198
2024-11-29,161237.93794210893
2024-12-02,160477.65096624833
2024-12-03,161219.25639303666
2024-12-04,163787.10250051957
2024-12-05,162956.3669544075
2024-12-06,163206.50259741288
2024-12-09,159336.0607181929
2024-12-10,157991.06308742508
2024-12-11,160054.76112946612
2024-12-12,159127.1366799727
2024-12-13,160663.45218502654
2024-12-16,161834.42931306612
2024-12-17,158949.61817877414
2024-12-18,152513.50947705202
2024-12-19,152335.7730388016
2024-12-20,153623.97733280231
2024-12-23,153840.08689377643
2024-12-24,154361.75434513902
2024-12-26,154869.23188048418
2024-12-27,153611.21344291396
2024-12-30,152709.94405646986
2024-12-31,151743.298628766
2025-01-02,152380.03137160963
2025-01-03,154174.66606094068
2025-01-06,154498.95159212966
2025-01-07,151784.2824932069
2025-01-08,151487.39069705672
2025-01-10,149839.7463366136
2025-01-13,148629.271486483
2025-01-14,149425.99505757674
2025-01-15,150290.7098135887
2025-01-16,150610.31619737778
2025-01-17,151869.8180807167
2025-01-21,154954.81765688857
2025-01-22,156229.4039605995
2025-01-23,157558.5162158085
2025-01-24,157718.97773985635
2025-01-27,148805.7228862095
2025-01-28,150591.85197937966
2025-01-29,151074.013472611
2025-01-30,152448.96538779704
2025-01-31,151288.0709678007
2025-02-03,151220.50241031608
2025-02-04,155046.49421134696
2025-02-05,156229.79521030036
2025-02-06,158922.0928902015
2025-02-07,158540.56702083198
2025-02-10,159411.5634521827
2025-02-11,158101.497767599
2025-02-12,159985.8619403366
2025-02-13,162603.80313650356
2025-02-14,163480.326566017
2025-02-18,164116.3688176039
2025-02-19,162220.3128068684
2025-02-20,159049.06271251265
2025-02-21,154679.82816994755
2025-02-24,153783.18129479123
2025-02-25,152122.18845022583
2025-02-26,152574.08085200394
2025-02-27,151250.2225841806
2025-02-28,152710.437653916
2025-03-03,151876.56555701816
2025-03-04,149415.68370659335
2025-03-05,149820.5664316491
2025-03-06,147352.0135025605
2025-03-07,147293.31541109624
2025-03-10,146819.51013438177
2025-03-11,145955.67181467285
2025-03-12,145741.76954886317
2025-03-13,145767.08335406185
2025-03-14,145962.09938341976
2025-03-17,146347.79755159144
2025-03-18,145691.03187079303
2025-03-19,145633.70115421712
2025-03-20,145653.7318701595
2025-03-21,145383.65867903573
2025-03-24,145722.51509001595
2025-03-25,145576.59661805187
2025-03-26,145569.99645554577
2025-03-27,145935.72301041638
2025-03-28,145796.56934613298
2025-03-31,146239.29768585355
2025-04-01,146252.1046926895
2025-04-02,146195.30676175
2025-04-03,146422.0064705473
2025-04-04,142375.87838129152
2025-04-07,141447.76597560587
2025-04-08,141386.75579799357
2025-04-09,141528.33452825388
2025-04-10,141706.67103795847
2025-04-11,141955.7784369453
2025-04-14,142180.81333133293
2025-04-15,142057.74356051994
2025-04-16,141971.4207250464
2025-04-17,142111.2312719214
2025-04-21,141457.66750922834
2025-04-22,141956.81725754673
2025-04-23,141650.83132452308
2025-04-24,141857.06368536293
2025-04-25,141594.28648991717
2025-04-28,141687.18832249774
2025-04-29,142285.21746934834
2025-04-30,143587.17306285683
2025-05-01,143838.82691630223
2025-05-02,145981.02975138524
2025-05-05,145791.86874445775
2025-05-06,145826.61037119725
2025-05-07,146527.92724665502
2025-05-08,147883.3047730222
2025-05-09,147140.62199970678
2025-05-12,147874.869091301
2025-05-13,150403.56680414663
2025-05-14,151079.14764546283
2025-05-15,151798.87405537494
2025-05-16,153289.53687428363
2025-05-19,154485.0205740822
2025-05-20,154350.37777470477
2025-05-21,152498.49654530414
2025-05-22,152569.52051304706
2025-05-23,152799.38411854632
2025-05-27,154643.1078302309
2025-05-28,154699.3024348757
2025-05-29,153229.04943652364
2025-05-30,155453.46152301045
2025-06-02,157003.59391207906
2025-06-03,157842.43664736958
2025-06-04,158660.68605795308
2025-06-05,158810.64009158727
2025-06-06,160843.35712306615
2025-06-09,158861.34691415806
2025-06-10,157529.5985524391
2025-06-11,159349.56819889296
2025-06-12,158608.21992290724
2025-06-13,157512.53305934631
2025-06-16,159368.861895589
2025-06-17,158067.02467122395
2025-06-18,158729.6469284566
2025-06-20,159171.99445051592
2025-06-23,160298.52747117236
2025-06-24,162247.3474882811
2025-06-25,160292.5526213895
2025-06-26,163032.85845034255
2025-06-27,163353.031711985
2025-06-30,166706.15882341994
2025-07-01,162362.3727363838
2025-07-02,163492.46041637647
2025-07-03,165501.92771352085
2025-07-07,166647.85464108738
2025-07-08,164619.23178113255
2025-07-09,168185.43140042576
2025-07-10,166491.41510951694
2025-07-11,165437.97642882238
2025-07-14,167905.35424298557
2025-07-15,167106.9929429215
2025-07-16,169075.11245937046
2025-07-17,171375.68114867102
2025-07-18,173062.65729375157
2025-07-21,173154.1285005637
2025-07-22,170217.20605061558
2025-07-23,172318.9948413654
2025-07-24,174949.89188708074
2025-07-25,176976.43025026936
2025-07-28,177433.24306688923
2025-07-29,176411.7942152352
2025-07-30,180098.8216858315
2025-07-31,181019.75926594014
2025-08-01,174980.52158245794
2025-08-04,178666.03267559758
2025-08-05,177714.1749988169
2025-08-06,183645.08314163855
2025-08-07,182612.20588994143
2025-08-08,183835.35037404177
2025-08-11,183029.11530095217
2025-08-12,186365.86684208986
2025-08-13,184417.16961839603
2025-08-14,182046.04453566056
2025-08-15,181297.9915189073
2025-08-18,181005.5297554063
2025-08-19,177940.70367107855
2025-08-20,177301.6027110407
2025-08-21,177371.99573980353
2025-08-22,179719.73461457732
2025-08-25,179948.30071946624
2025-08-26,180893.57455369475
2025-08-27,180434.17736741545
2025-08-28,183212.15557404998
2025-08-29,182400.7322685385
2025-09-02,180969.86053636076
2025-09-03,181770.8393853914
2025-09-04,185684.63508164993
2025-09-05,185588.9553265535
2025-09-08,186281.43110817083
2025-09-09,189739.82920997747
2025-09-10,192559.76733940252
2025-09-11,194186.59055107244
2025-09-12,192817.40973509345
2025-09-15,195435.59412901435
2025-09-16,195610.66515867744
2025-09-17,195826.8564924482
2025-09-18,198096.94279997383
2025-09-19,200089.5106291059
2025-09-22,200277.5876631025
2025-09-23,198162.33412835028
2025-09-24,196652.36618954106
2025-09-25,194988.72782588296
2025-09-26,196530.99206961162
2025-09-29,199571.14893949992
2025-09-30,199611.89361084087
2025-10-01,199482.27283402384
2025-10-02,200272.98332117594
2025-10-03,200545.64630659236
2025-10-06,199934.6969362662
2025-10-07,200661.73625625827
2025-10-08,204587.5027414725
2025-10-09,204043.55171609716
2025-10-10,196833.37072861698
2025-10-13,200267.57891190556
2025-10-14,199147.94833064257
2025-10-15,200817.693168302
2025-10-16,199978.69464733236
2025-10-17,198866.96156964905
2025-10-20,201158.59533582337
2025-10-21,198662.22448527938
2025-10-22,194955.22901389343
2025-10-23,200264.95876548035
2025-10-24,204857.6008667682
2025-10-27,207799.03825232727
2025-10-28,208870.66694495422
2025-10-29,212646.6100411151
2025-10-30,207397.68937196105
2025-10-31,209220.48020948545
2025-11-03,210652.03689698546
2025-11-04,202863.95558625547
2025-11-05,207820.85499288695
2025-11-06,203709.0145426573
2025-11-07,202839.46813923103
2025-11-10,206398.88842708193
2025-11-11,204006.69935231385
2025-11-12,203946.71035844518
2025-11-13,196896.82561998634
2025-11-14,197269.33257036476
2025-11-17,195679.5185364553
2025-11-18,195126.5702637502
2025-11-19,194980.39984405722
2025-11-20,189821.6776778841
2025-11-21,191547.04483807128
2025-11-24,194802.90503160114
2025-11-25,195738.69969492196
2025-11-26,197337.91257028817
2025-11-28,198808.65580301522
2025-12-01,197475.39653330087
2025-12-02,197087.8012040162
2025-12-03,196430.8238859083
2025-12-04,197248.5848703435
2025-12-05,198692.67478275805
2025-12-08,200535.15089512378
2025-12-09,201631.96031811266
2025-12-10,205427.99854158232
2025-12-11,206073.2114703543
2025-12-12,199633.87327017915
2025-12-15,199568.35048117768
2025-12-16,198608.46909204684
2025-12-17,194744.4071866147
2025-12-18,197698.226936841
2025-12-19,200764.30698444843
2025-12-22,203019.7905507326
2025-12-23,202910.06973051775
2025-12-24,203852.84932390155
2025-12-26,203619.25038591327
2025-12-29,202847.27250352802
2025-12-30,202097.68527824726
2025-12-31,200559.69639590595
2026-01-02,205004.5575914284
2026-01-05,207077.7036744313
2026-01-06,212107.80523624466
2026-01-07,208685.87838722247
2026-01-08,205809.78096516244
2026-01-09,210358.6459935438
2026-01-12,213073.10884602182
2026-01-13,214060.896394087
2026-01-14,213038.9503243696
2026-01-15,215760.93157703988
2026-01-16,218792.4616826307
2026-01-20,215836.4341309797
2026-01-21,219311.3163007032
2026-01-22,218173.50168075488
2026-01-23,217449.23186715625
2026-01-26,217489.04587586902
2026-01-27,221984.97143014453
2026-01-28,226692.79406960987
2026-01-29,227546.8605521538
2026-01-30,221080.47325975756
2026-02-02,223980.70041338928
2026-02-03,224489.1194436818
2026-02-04,218322.48512957964
2026-02-05,215718.31401488732
2026-02-06,221491.6855181343
2026-02-09,223672.27210342287
2026-02-10,221237.39445410657
2026-02-11,224708.24976664962
2026-02-12,224611.23494655074
2026-02-13,226727.81150371017
2026-02-17,226855.7213318962
2026-02-18,227891.894053759
2026-02-19,228852.78973704757
2026-02-20,230192.189101519
2026-02-23,230143.73341309588
2026-02-24,231696.6755880504
2026-02-25,232095.29063550523
2026-02-26,231376.34042493394
2026-02-27,230768.45424407092
2026-03-02,230999.34641246893
2026-03-03,224431.86038153878
2026-03-04,226449.34601619028
2026-03-05,220810.52095913765
2026-03-06,216254.06739606633
2026-03-09,220323.361376204
2026-03-10,220165.43120805215
2026-03-11,221303.30256593655
2026-03-12,219263.95770204495
2026-03-13,219366.52345216702
2026-03-16,222198.796637897
2026-03-17,223718.33410585354
2026-03-18,224404.73858732937
2026-03-19,226684.95306639446
2026-03-20,221048.55905880485
2026-03-23,222664.74542695133
2026-03-24,227490.98829565028
2026-03-25,227685.98456487636
2026-03-26,222991.54929424648
2026-03-27,224286.29024570636
2026-03-30,219708.4623839089
2026-03-31,219715.46751596135
2026-04-01,217983.34515058
2026-04-02,220581.2674504073
2026-04-06,220024.27699477985
2026-04-07,221493.4966845229
2026-04-08,219776.61184333637
2026-04-09,219534.70106369158
2026-04-10,222033.68450047323
2026-04-13,225753.7154987032
2026-04-14,228058.60229637165
2026-04-15,227068.94185003685
2026-04-16,229663.167567724
2026-04-17,226235.36826957398
2026-04-20,228527.40099423012
2026-04-21,230490.25981228432
2026-04-22,234071.34473507485
2026-04-23,237384.40078060707
2026-04-24,237327.96982662758
2026-04-27,237764.46524136147
2026-04-28,231053.00187452798
2026-04-29,239228.43518782142
2026-04-30,245080.44211531166
2026-05-01,248210.25222731117
2026-05-04,252809.4670405436
2026-05-05,259260.34044600013
2026-05-06,269918.2747035074
2026-05-07,260627.19391641
2026-05-08,267661.7403640418
2026-05-11,276239.6405754142
2026-05-12,268678.94646376383
2026-05-13,270807.57901475957
2026-05-14,270230.3567094617
2026-05-15,264622.2575949909
2026-05-18,257770.43664670686
2026-05-19,256684.8844611526
2026-05-20,258384.62606881862
2026-05-21,262378.72369455104
2026-05-22,264243.78675912623
2026-05-26,268647.479695108
2026-05-27,266976.95276258234
2026-05-28,266675.6895063262
2026-05-29,270196.8812525243
2026-06-01,271394.84500043327
2026-06-02,277851.9435772175
2026-06-03,280457.9508330036
2026-06-04,277319.0915847126
2026-06-05,261080.9265489846
2026-06-08,265384.8225908547
2026-06-09,261030.48689655657
2026-06-10,254753.354073096
2026-06-11,263218.76731192716
2026-06-12,266825.56386755477
2026-06-15,274872.6375141002
2026-06-16,269719.318262086
2026-06-17,271594.15025518904
2026-06-18,277645.0751361705
2026-06-22,282414.9587955333
2026-06-23,272891.7258319713
2026-06-24,272095.0016147399
2026-06-25,275185.45609334705
2026-06-26,266171.7952697844
2026-06-29,274788.08888703294
2026-06-30,281197.55802802416
2026-07-01,268516.2961462798
2026-07-02,260276.04407388598
2026-07-06,263003.84791400435
2026-07-07,257039.6823351669
2026-07-08,257350.63825282175
2026-07-09,262072.28622575264
2026-07-10,260338.50192417792
2026-07-13,255621.19193229562
2026-07-14,259626.41332523152
2026-07-15,256537.24484378623
2026-07-16,255327.24451095745
2026-07-17,255308.343627855
2026-07-20,253930.25037005436
2026-07-21,255192.39851763737
2026-07-22,254638.24314501774
2026-07-23,253095.28138232243
2026-07-24,252145.04231839362
2026-07-27,251252.4386625108
2026-07-28,249720.25216827655
2026-07-29,248693.21608147593
2026-07-30,249317.25004995827
2026-07-31,248237.2373949543
2026-08-03,248244.2071458088
2026-08-04,251275.5106172175
2026-08-05,250584.19772581948
2026-08-06,247507.41052681272
2026-08-07,248650.82223378326
2026-08-10,252086.05169664696
2026-08-11,253124.24927507713
2026-08-12,254371.07111727074
2026-08-13,257261.6551474221
2026-08-14,255710.75608049706
2026-08-17,254710.22761904076
2026-08-18,253150.60157773521
2026-08-19,253496.98070047447
2026-08-20,251376.8553833358
2026-08-21,253860.44730000754
2026-08-24,252139.8570938613
2026-08-25,252476.79230885764
2026-08-26,253177.58164113303
2026-08-27,255086.0942091567
2026-08-28,252762.95842882222
2026-08-31,253212.73448701925
2026-09-01,250333.32861287374
2026-09-02,249580.580901509
2026-09-03,251275.578552571
2026-09-04,249628.26382426903
2026-09-08,248605.4503523879
2026-09-09,247622.07787323254
2026-09-10,244426.3353124873
2026-09-11,247101.16061342115
2026-09-14,244242.32167430373
2026-09-15,246782.89714122267
2026-09-16,249526.15550303907
2026-09-17,253716.9552619502
2026-09-18,252812.75062449905
2026-09-21,254773.0429893672
2026-09-22,254303.57045518752
2026-09-23,254745.1216942012
2026-09-24,257588.43229814403
2026-09-25,257734.1016215083
2026-09-28,257847.41197001905
2026-09-29,259471.15218913526
2026-09-30,259714.0027292964
2026-10-01,261458.32125651807
