,equity
2023-10-02,100000.0
2023-10-03,99520.17476170433
2023-10-04,99736.66620268337
2023-10-05,99837.3813784896
2023-10-06,100954.14945144257
2023-10-09,102018.87417874721
2023-10-10,102908.3967995178
2023-10-11,103795.4754923946
2023-10-12,103221.39787474934
2023-10-13,101342.66163757244
2023-10-16,102384.62844147414
2023-10-17,102523.86069886702
2023-10-18,100791.6845768266
2023-10-19,99215.6978516096
2023-10-20,97583.20516374803
2023-10-23,97644.26963069147
2023-10-24,98004.22772835044
2023-10-25,96031.70589745045
2023-10-26,95555.93532387653
2023-10-27,95298.64815911022
2023-10-30,95556.50831782327
2023-10-31,95860.74215391534
2023-11-01,96740.41316277883
2023-11-02,97001.65237994352
2023-11-03,98107.6632697123
2023-11-06,98437.69361593376
2023-11-07,98995.41874222855
2023-11-08,99139.58485703568
2023-11-09,99383.48342042069
2023-11-10,101090.51506905655
2023-11-13,100908.26258177856
2023-11-14,102415.86540914062
2023-11-15,102032.33825803283
2023-11-16,101837.89435098175
2023-11-17,102611.93098238281
2023-11-20,104032.09571817688
2023-11-21,103424.29481485656
2023-11-22,104180.12956407836
2023-11-24,104519.9851873236
2023-11-27,104899.53099230102
2023-11-28,105547.68556192689
2023-11-29,105452.75680743546
2023-11-30,105368.35278378625
2023-12-01,106069.80221209474
2023-12-04,105994.27448018403
2023-12-05,106074.09946679501
2023-12-06,104300.53255899221
2023-12-07,105597.79497781121
2023-12-08,107101.350802091
2023-12-11,107796.68954494888
2023-12-12,108636.6363227904
2023-12-13,110464.5168588698
2023-12-14,110399.38974429155
2023-12-15,110376.19216395402
2023-12-18,111212.87743617082
2023-12-19,112386.7116589644
2023-12-20,110321.56158756091
2023-12-21,112125.62789443467
2023-12-22,112563.52332557175
2023-12-26,112903.67250163086
2023-12-27,114224.08179644211
2023-12-28,114259.83099440201
2023-12-29,112680.46231265762
2024-01-02,110323.30618445194
2024-01-03,108902.29907951033
2024-01-04,109220.17280830062
2024-01-05,109382.1759284464
2024-01-08,111902.27327963476
2024-01-09,112603.8331583865
2024-01-10,113297.53914059474
2024-01-11,114089.80607022121
2024-01-12,113674.57492174403
2024-01-16,114041.4846580624
2024-01-17,113147.98051312068
2024-01-18,114861.20903977015
2024-01-19,117884.31414612391
2024-01-22,118512.17741489987
2024-01-23,118702.46573174576
2024-01-24,119331.82721814254
2024-01-25,120636.46510541825
2024-01-26,119771.2063224974
2024-01-29,121386.8165159878
2024-01-30,120587.84645102867
2024-01-31,118765.5455032595
2024-02-01,121036.0733198962
2024-02-02,123323.32218258333
2024-02-05,123430.50756101287
2024-02-06,123343.55474660551
2024-02-07,125374.11848064797
2024-02-08,126445.5729560508
2024-02-09,127428.68152505244
2024-02-12,127069.31609612786
2024-02-13,125138.72524031762
2024-02-14,128762.68140936932
2024-02-15,131183.2606349095
2024-02-16,128934.47971789898
2024-02-20,127195.28610329327
2024-02-21,124983.60776592782
2024-02-22,129524.90483674774
2024-02-23,130892.33830157624
2024-02-26,132848.47434321747
2024-02-27,134746.34574214322
2024-02-28,134291.34176150666
2024-02-29,135989.16209773405
2024-03-01,140062.90926619692
2024-03-04,142297.35859378785
2024-03-05,138765.03982804192
2024-03-06,140932.21894233546
2024-03-07,142763.20762203532
2024-03-08,142292.12865207987
2024-03-11,139585.22396012372
2024-03-12,141269.04447276454
2024-03-13,142123.52251046215
2024-03-14,140390.67747130402
2024-03-15,139582.55674640115
2024-03-18,140204.90598532106
2024-03-19,140117.27787377627
2024-03-20,143833.92272770498
2024-03-21,146073.1336448422
2024-03-22,145692.424333334
2024-03-25,147152.78289545252
2024-03-26,147107.63883531763
2024-03-27,146946.96811357694
2024-03-28,146890.6317005483
2024-04-01,146800.20643046775
2024-04-02,145345.56329182448
2024-04-03,147625.97313784904
2024-04-04,145066.4543774264
2024-04-05,147647.17041292426
2024-04-08,147631.4838013825
2024-04-09,145680.47046016334
2024-04-10,144857.04511898753
2024-04-11,146582.83037654636
2024-04-12,143405.86452874335
2024-04-15,140635.2663137219
2024-04-16,141250.96362115233
2024-04-17,139064.90256046035
2024-04-18,138492.78737469163
2024-04-19,136849.81045823902
2024-04-22,137316.7753549734
2024-04-23,137984.85470379237
2024-04-24,137664.1922416811
2024-04-25,138178.06423069257
2024-04-26,138976.05368109822
2024-04-29,139098.8055497583
2024-04-30,137129.45886739632
2024-05-01,136289.60330487808
2024-05-02,139995.5315762627
2024-05-03,140888.99342391538
2024-05-06,143388.59622582325
2024-05-07,142455.93042477497
2024-05-08,142800.0866328133
2024-05-09,144135.86483105549
2024-05-10,144017.70360573658
2024-05-13,143249.92203112395
2024-05-14,144105.09738442025
2024-05-15,146243.94689641643
2024-05-16,144628.88679420337
2024-05-17,144893.04742093734
2024-05-20,146565.08106465987
2024-05-21,146738.2400688713
2024-05-22,145581.83906784898
2024-05-23,145221.1815649164
2024-05-24,147794.3020003154
2024-05-28,147837.03500202438
2024-05-29,147004.95737850448
2024-05-30,146100.76229334672
2024-05-31,144951.9028093424
2024-06-03,144754.49603223207
2024-06-04,143886.81881871758
2024-06-05,146785.72767990918
2024-06-06,145412.6100195411
2024-06-07,144533.2841463264
2024-06-10,146549.27221630389
2024-06-11,145818.16927788453
2024-06-12,148623.39941300216
2024-06-13,148010.98836013046
2024-06-14,146327.64109194273
2024-06-17,147697.01530954102
2024-06-18,149066.18490612152
2024-06-20,146965.54670575476
2024-06-21,146295.79491879707
2024-06-24,145083.23785436005
2024-06-25,147171.08608680422
2024-06-26,146206.9747450119
2024-06-27,146896.94470508362
2024-06-28,145745.67180181213
2024-07-01,145799.72500860124
2024-07-02,146522.45684140676
2024-07-03,147416.10069498117
2024-07-05,147791.04222567956
2024-07-08,147769.44992144982
2024-07-09,148775.67498668114
2024-07-10,150247.8059148733
2024-07-11,148142.270388316
2024-07-12,149572.91977297567
2024-07-15,150963.3134215141
2024-07-16,151949.71211227486
2024-07-17,146188.25587019528
2024-07-18,145243.50003396694
2024-07-19,145647.43478146434
2024-07-22,147061.73432179948
2024-07-23,146952.0095307791
2024-07-24,143456.59094608176
2024-07-25,142199.46352173176
2024-07-26,143653.4274485996
2024-07-29,142582.1418558033
2024-07-30,141972.83895923122
2024-07-31,143031.96495951203
2024-08-01,140360.6077355211
2024-08-02,136808.60151297567
2024-08-05,134633.5113908513
2024-08-06,135675.49526246602
2024-08-07,134818.53454414787
2024-08-08,136748.64186021948
2024-08-09,137281.04519857513
2024-08-12,136746.1803238651
2024-08-13,137824.40109174838
2024-08-14,138915.84480398288
2024-08-15,139828.44267194858
2024-08-16,140274.19080942264
2024-08-19,141312.77074163547
2024-08-20,141980.59832494846
2024-08-21,142364.39464967838
2024-08-22,142185.39666288486
2024-08-23,143013.32240312686
2024-08-26,142703.2844974338
2024-08-27,143675.78892629733
2024-08-28,143457.20451558413
2024-08-29,144147.906586774
2024-08-30,144628.84020627322
2024-09-03,142647.479596326
2024-09-04,142836.63882239402
2024-09-05,141726.82611449301
2024-09-06,139879.50907517647
2024-09-09,141641.81013733346
2024-09-10,141816.97076211427
2024-09-11,141543.25819018952
2024-09-12,142704.96337706342
2024-09-13,143902.00589072413
2024-09-16,145039.43725618522
2024-09-17,144291.95361456077
2024-09-18,144161.64619683617
2024-09-19,144754.94059551955
2024-09-20,145839.36784209014
2024-09-23,146697.78437079192
2024-09-24,146719.88903034927
2024-09-25,147311.49527492857
2024-09-26,146245.31371971406
2024-09-27,146862.07850554166
2024-09-30,147400.42877162958
2024-10-01,146613.19032894922
2024-10-02,147346.7910995714
2024-10-03,147044.4846370226
2024-10-04,148354.74019370376
2024-10-07,146569.3863678746
2024-10-08,148187.56383812526
2024-10-09,148969.10104429437
2024-10-10,148378.78387868815
2024-10-11,149944.08987642537
2024-10-14,151206.88124333823
2024-10-15,150619.5833214861
2024-10-16,152364.88211909353
2024-10-17,152290.00237265645
2024-10-18,152739.36337176381
2024-10-21,152174.46437535345
2024-10-22,151288.19196262458
2024-10-23,150380.8403977468
2024-10-24,151231.33194983267
2024-10-25,150663.7008330343
2024-10-28,151871.64917655243
2024-10-29,152392.9459095269
2024-10-30,151923.37855153542
2024-10-31,147907.11651295848
2024-11-01,147202.35460329233
2024-11-04,146694.36368112426
2024-11-05,151013.11145334106
2024-11-06,157833.76128042082
2024-11-07,158810.59058539878
2024-11-08,162094.46717751035
2024-11-11,166972.58910667905
2024-11-12,166148.25759721096
2024-11-13,167484.03591840086
2024-11-14,165550.01378125485
2024-11-15,165626.11420972616
2024-11-18,167008.77232125239
2024-11-19,169787.12086753768
2024-11-20,171002.99661140365
2024-11-21,172608.1947749199
2024-11-22,174858.70899349428
2024-11-25,175101.41273315833
2024-11-26,175860.25567921088
2024-11-27,175233.74968441413
2024-11-29,176435.15009997008
2024-12-02,175184.4691307318
2024-12-03,175755.2483937132
2024-12-04,178639.73270100233
2024-12-05,177833.563444792
2024-12-06,178992.72319810317
2024-12-09,173900.00139250472
2024-12-10,172184.8767547647
2024-12-11,173820.67183795563
2024-12-12,173090.2978919565
2024-12-13,174148.9375957071
2024-12-16,175572.09573982083
2024-12-17,172450.60878559033
2024-12-18,165054.9410804165
2024-12-19,165350.104386206
2024-12-20,167035.06439288653
2024-12-23,167332.54027541674
2024-12-24,168413.1956664003
2024-12-26,168883.27334279427
2024-12-27,166780.71747493817
2024-12-30,165462.67817219128
2024-12-31,164557.96090134015
2025-01-02,164720.79433233896
2025-01-03,166666.59298546024
2025-01-06,167487.09124699282
2025-01-07,164498.26273840785
2025-01-08,164189.4716661043
2025-01-10,162154.1117097324
2025-01-13,161142.2343036072
2025-01-14,162836.5710951111
2025-01-15,165053.51785333105
2025-01-16,166651.68642101428
2025-01-17,169160.1458726897
2025-01-21,172672.73835811755
2025-01-22,174878.43705616138
2025-01-23,175498.72733364246
2025-01-24,175063.72979657887
2025-01-27,161525.66213528332
2025-01-28,162976.4366605595
2025-01-29,163379.3068629631
2025-01-30,165034.8731471528
2025-01-31,163048.99194952848
2025-02-03,162864.05575924672
2025-02-04,164428.44187258417
2025-02-05,166669.4384251994
2025-02-06,167220.3148957652
2025-02-07,166976.33652128399
2025-02-10,167467.53474630535
2025-02-11,166322.2141964854
2025-02-12,166502.03699233884
2025-02-13,169886.20303261981
2025-02-14,170291.91478700482
2025-02-18,170952.85353234538
2025-02-19,170543.99986670725
2025-02-20,166146.48505897785
2025-02-21,160189.61314991413
2025-02-24,158673.67869031942
2025-02-25,156846.27338514465
2025-02-26,157442.25758992863
2025-02-27,156026.34676310053
2025-02-28,157485.93656897
2025-03-03,156307.98463949928
2025-03-04,153800.1882881746
2025-03-05,154208.5767868454
2025-03-06,152022.41499958385
2025-03-07,152021.79665611667
2025-03-10,151656.28762439988
2025-03-11,150809.07111139494
2025-03-12,150395.1919537158
2025-03-13,150235.99288604176
2025-03-14,150738.13977477467
2025-03-17,151452.9407112189
2025-03-18,150634.54119933
2025-03-19,150972.93620238503
2025-03-20,151134.08155087708
2025-03-21,150291.9709693875
2025-03-24,151630.24918960236
2025-03-25,151508.1994732897
2025-03-26,150035.53856091414
2025-03-27,149757.54162143043
2025-03-28,148950.78240136866
2025-03-31,150016.3955791793
2025-04-01,149977.77245179273
2025-04-02,150230.5687488661
2025-04-03,148322.35751026846
2025-04-04,142075.80315813003
2025-04-07,141299.78272059985
2025-04-08,141232.03880737815
2025-04-09,141387.59454264335
2025-04-10,141456.38202616386
2025-04-11,141830.93728072368
2025-04-14,142254.71045290743
2025-04-15,142154.2090377847
2025-04-16,141598.81402396515
2025-04-17,141732.88208960934
2025-04-21,139928.99590950983
2025-04-22,141857.10985533288
2025-04-23,141368.1033635082
2025-04-24,143773.08927212952
2025-04-25,144584.17214266772
2025-04-28,144930.46564929004
2025-04-29,145893.233845396
2025-04-30,147524.63626979367
2025-05-01,147265.47236724012
2025-05-02,150509.64478290585
2025-05-05,150371.95954120663
2025-05-06,149918.7172507098
2025-05-07,151005.60684192684
2025-05-08,152245.80628557614
2025-05-09,151826.15297184736
2025-05-12,151050.63719445604
2025-05-13,153425.42054755555
2025-05-14,154217.40644843446
2025-05-15,154938.7629066411
2025-05-16,156276.67685080212
2025-05-19,157262.740946605
2025-05-20,157076.37321551063
2025-05-21,155191.37910800485
2025-05-22,155213.0191735146
2025-05-23,155167.53413571094
2025-05-27,157515.52949417804
2025-05-28,157360.06910694813
2025-05-29,156311.66181172107
2025-05-30,158493.32780541157
2025-06-02,160153.29200733875
2025-06-03,160428.75644123522
2025-06-04,160495.42226105946
2025-06-05,160666.8851343346
2025-06-06,161484.3236973571
2025-06-09,159464.46647307242
2025-06-10,158085.33491911733
2025-06-11,159419.77822957266
2025-06-12,158965.4428079647
2025-06-13,157807.93667110417
2025-06-16,159970.50347692083
2025-06-17,158927.02403354555
2025-06-18,159831.63086345716
2025-06-20,159708.1073772675
2025-06-23,160822.97778928958
2025-06-24,162997.07725651737
2025-06-25,161868.8302962077
2025-06-26,163905.9229095316
2025-06-27,164528.91748881625
2025-06-30,167681.3889033823
2025-07-01,163578.01078583242
2025-07-02,164649.5199053603
2025-07-03,166428.54883586682
2025-07-07,167379.97466480054
2025-07-08,165420.50396663466
2025-07-09,167690.2198861807
2025-07-10,166656.53935219362
2025-07-11,165980.2265762734
2025-07-14,168520.18368298572
2025-07-15,167459.6454787981
2025-07-16,169378.8503867647
2025-07-17,171277.31127446765
2025-07-18,172094.69573429128
2025-07-21,170800.28205948594
2025-07-22,168255.27938774292
2025-07-23,170277.74299526456
2025-07-24,170389.5762210932
2025-07-25,172335.99706326527
2025-07-28,172673.34181653065
2025-07-29,171972.39952970328
2025-07-30,174477.97700618947
2025-07-31,174462.6481795399
2025-08-01,170460.75355761882
2025-08-04,173674.81545732307
2025-08-05,172638.0206184559
2025-08-06,173417.5418265562
2025-08-07,172758.2767521069
2025-08-08,172926.1156246151
2025-08-11,172000.7795731427
2025-08-12,174719.18598731302
2025-08-13,173546.22408435954
2025-08-14,170713.64229418524
2025-08-15,170612.83222463628
2025-08-18,171765.8093629213
2025-08-19,167195.22556504072
2025-08-20,166057.70535018513
2025-08-21,166220.36290523753
2025-08-22,169195.1144025062
2025-08-25,169757.99913649593
2025-08-26,175198.01498547604
2025-08-27,176685.6544603448
2025-08-28,178959.74009018947
2025-08-29,178146.4515722127
2025-09-02,178369.17072448155
2025-09-03,178803.6045029906
2025-09-04,182825.70989752887
2025-09-05,182943.27057169407
2025-09-08,186576.54325137252
2025-09-09,187794.56614146347
2025-09-10,189450.1941147148
2025-09-11,191539.60958946304
2025-09-12,190493.10603052762
2025-09-15,192639.74254492178
2025-09-16,192240.5005849096
2025-09-17,193289.17474916094
2025-09-18,196650.93894887558
2025-09-19,199654.8832754671
2025-09-22,200615.43538804643
2025-09-23,198899.59392911638
2025-09-24,195576.8108839032
2025-09-25,193760.38141073764
2025-09-26,194583.09917487245
2025-09-29,198528.91632926324
2025-09-30,199600.5066229094
2025-10-01,201171.07215794356
2025-10-02,203153.03879530317
2025-10-03,201835.46762708176
2025-10-06,202752.7117344543
2025-10-07,201896.8762467144
2025-10-08,205764.05714464877
2025-10-09,205541.58833791577
2025-10-10,197394.97251712636
2025-10-13,200784.4231415923
2025-10-14,198504.21804999115
2025-10-15,200421.18486477996
2025-10-16,198906.09993857265
2025-10-17,198088.87671471096
2025-10-20,200291.75267873073
2025-10-21,197910.66627376736
2025-10-22,193842.29139380046
2025-10-23,198095.64595655986
2025-10-24,202365.43151922774
2025-10-27,205301.2028423477
2025-10-28,205304.38206826933
2025-10-29,210175.51164873806
2025-10-30,205240.6374222888
2025-10-31,207375.17357852543
2025-11-03,209416.02425683202
2025-11-04,202045.99872440298
2025-11-05,207061.34510697896
2025-11-06,203127.70477746995
2025-11-07,202069.20834084786
2025-11-10,206664.53927733132
2025-11-11,203705.06566138088
2025-11-12,203896.7832822305
2025-11-13,195408.31606004242
2025-11-14,195280.56572238708
2025-11-17,193524.19387852162
2025-11-18,192764.23053538194
2025-11-19,193169.95418345323
2025-11-20,186299.1579762981
2025-11-21,188510.5727167461
2025-11-24,192464.3805363574
2025-11-25,193835.5290257865
2025-11-26,195866.4498322016
2025-11-28,197521.34000705864
2025-12-01,195747.88156510307
2025-12-02,194987.02258341946
2025-12-03,195022.16736285482
2025-12-04,195960.20706307428
2025-12-05,198532.60564229073
2025-12-08,199365.89425480843
2025-12-09,201018.11428351022
2025-12-10,205414.5214986763
2025-12-11,206288.1102476082
2025-12-12,198200.50879347167
2025-12-15,198224.4145303949
2025-12-16,197615.1257793145
2025-12-17,191930.78452946647
2025-12-18,195343.17400836357
2025-12-19,199022.56986782953
2025-12-22,201542.81949967396
2025-12-23,201279.15919147694
2025-12-24,202027.1716402074
2025-12-26,201385.82534961903
2025-12-29,199917.4108240758
2025-12-30,198804.06162837727
2025-12-31,196556.90575871296
2026-01-02,201329.49264307422
2026-01-05,202277.30204938847
2026-01-06,207765.07080822653
2026-01-07,204517.7159430387
2026-01-08,201692.37686660004
2026-01-09,205920.71907675936
2026-01-12,209247.41280043795
2026-01-13,210101.88810852205
2026-01-14,209364.8875860611
2026-01-15,211730.0851541763
2026-01-16,213491.85411340365
2026-01-20,211143.64610376267
2026-01-21,215763.83270844258
2026-01-22,215611.70615460776
2026-01-23,214204.96967203787
2026-01-26,213763.0278850813
2026-01-27,219206.28545104124
2026-01-28,222702.68666247482
2026-01-29,222573.97125769214
2026-01-30,215915.75130985607
2026-02-02,219803.66946706324
2026-02-03,221011.89802465058
2026-02-04,214190.47873178683
2026-02-05,213791.29859242646
2026-02-06,218901.93156964862
2026-02-09,221258.2432018622
2026-02-10,218054.85370089617
2026-02-11,222099.4164839586
2026-02-12,220181.67164469959
2026-02-13,222611.89528379703
2026-02-17,223230.29570748186
2026-02-18,224810.3381427846
2026-02-19,225341.32130089618
2026-02-20,228213.99214211322
2026-02-23,227422.10921767855
2026-02-24,228867.60504821443
2026-02-25,230563.1310929837
2026-02-26,229032.51435109158
2026-02-27,229289.62139380502
2026-03-02,230912.98542431704
2026-03-03,222441.74920433303
2026-03-04,224402.5685860469
2026-03-05,218556.50696679734
2026-03-06,213575.1720032241
2026-03-09,217616.86299986104
2026-03-10,217570.4199544051
2026-03-11,219231.66633072728
2026-03-12,215725.69105268267
2026-03-13,215234.02544306353
2026-03-16,218989.48648561822
2026-03-17,221431.38936955004
2026-03-18,222122.15537808352
2026-03-19,225547.3249248573
2026-03-20,218443.5323547186
2026-03-23,220078.43537428038
2026-03-24,226372.515744025
2026-03-25,226467.76266334616
2026-03-26,219186.91956340108
2026-03-27,220470.95516108786
2026-03-30,213971.22250424788
2026-03-31,215098.53603915073
2026-04-01,214143.04228805815
2026-04-02,218441.33130924118
2026-04-06,218214.33472095383
2026-04-07,220362.32862258045
2026-04-08,223625.7559981798
2026-04-09,224005.544990124
2026-04-10,225223.80561397652
2026-04-13,228041.27850468946
2026-04-14,227506.77400869847
2026-04-15,225086.32171165285
2026-04-16,228741.08530647788
2026-04-17,227814.71227486775
2026-04-20,229065.41860149254
2026-04-21,228116.125817373
2026-04-22,231016.3578075746
2026-04-23,233787.19040607283
2026-04-24,235740.66470645735
2026-04-27,235205.4285881407
2026-04-28,228751.94956578963
2026-04-29,232956.6117618927
2026-04-30,239569.82364779693
2026-05-01,240552.15114337188
2026-05-04,241570.91668193022
2026-05-05,246059.84058986336
2026-05-06,257004.00009528917
2026-05-07,248827.709626918
2026-05-08,254261.12574923242
2026-05-11,259454.44133776292
2026-05-12,253899.23417474548
2026-05-13,255736.63545216428
2026-05-14,257372.73589371145
2026-05-15,249355.04206861206
2026-05-18,243228.30658121826
2026-05-19,241635.16037398687
2026-05-20,245610.81828044658
2026-05-21,248039.71922621102
2026-05-22,253974.98190648176
2026-05-26,260967.51797093073
2026-05-27,258349.69053682804
2026-05-28,259012.66095778483
2026-05-29,263233.6951922022
2026-06-01,266058.1776307711
2026-06-02,275797.5225175509
2026-06-03,278159.9500581283
2026-06-04,273166.14607992425
2026-06-05,254563.4090848064
2026-06-08,259107.98726702688
2026-06-09,254446.05035821884
2026-06-10,248072.36055150392
2026-06-11,258257.2362206147
2026-06-12,261662.0722153518
2026-06-15,267969.7680437683
2026-06-16,260172.06624842103
2026-06-17,260542.19871892006
2026-06-18,268932.3523652308
2026-06-22,275170.72845514014
2026-06-23,259536.43611885884
2026-06-24,259051.14808891265
2026-06-25,263866.25696043565
2026-06-26,251032.78235858376
2026-06-29,260802.12111166728
2026-06-30,268578.8950126026
2026-07-01,255009.37923042144
2026-07-02,242641.005388273
2026-07-06,245050.66393090607
2026-07-07,237096.98289123824
2026-07-08,237442.04112554647
2026-07-09,242234.49461095204
2026-07-10,240036.89406964422
2026-07-13,235609.85221453832
2026-07-14,239544.82181240674
2026-07-15,236350.0579488775
2026-07-16,234140.85685643408
2026-07-17,233166.78092786047
2026-07-20,231668.26302986144
2026-07-21,232741.38664108276
2026-07-22,232100.3947778593
2026-07-23,230130.80307252065
2026-07-24,228795.8809388463
2026-07-27,227574.65376373896
2026-07-28,227559.4719616883
2026-07-29,226237.15287316736
2026-07-30,226754.94119388738
2026-07-31,225194.49944951676
2026-08-03,224879.11894481705
2026-08-04,228058.9924292183
2026-08-05,226174.10050950092
2026-08-06,222647.73212917463
2026-08-07,225314.64011312596
2026-08-10,228313.77650234848
2026-08-11,229273.83646967943
2026-08-12,232204.2406285892
2026-08-13,234087.64522455723
2026-08-14,232398.06007465487
2026-08-17,232088.92376447422
2026-08-18,229526.15146112948
2026-08-19,238934.42326226793
2026-08-20,234779.63449069962
2026-08-21,236794.2700860976
2026-08-24,234322.9880122145
2026-08-25,234644.8404179915
2026-08-26,236103.02133845887
2026-08-27,237493.18079248795
2026-08-28,234939.62576274097
2026-08-31,235589.73272642662
2026-09-01,232234.07517612985
2026-09-02,231320.8717333617
2026-09-03,234582.8111959166
2026-09-04,232119.48815825794
2026-09-08,229615.32247110523
2026-09-09,228697.28353739352
2026-09-10,225544.9188371677
2026-09-11,227778.36125846286
2026-09-14,224835.83472508396
2026-09-15,226786.56359457553
2026-09-16,227769.35549501193
2026-09-17,232126.34901385845
2026-09-18,230322.3759117619
2026-09-21,231758.05329310955
2026-09-22,230880.6015065612
2026-09-23,232133.76050350943
2026-09-24,233972.19757510367
2026-09-25,233936.34649639885
2026-09-28,233100.333230606
2026-09-29,233584.80357434074
2026-09-30,234583.81928659813
2026-10-01,236618.93452082053
