,equity
2023-10-02,100000.0
2023-10-03,100000.0
2023-10-04,100000.0
2023-10-05,100000.0
2023-10-06,100000.0
2023-10-09,100000.0
2023-10-10,100000.0
2023-10-11,100000.0
2023-10-12,100000.0
2023-10-13,100000.0
2023-10-16,100000.0
2023-10-17,100000.0
2023-10-18,100000.0
2023-10-19,100000.0
2023-10-20,100000.0
2023-10-23,100000.0
2023-10-24,100000.0
2023-10-25,100000.0
2023-10-26,100000.0
2023-10-27,100000.0
2023-10-30,100000.0
2023-10-31,100000.0
2023-11-01,100000.0
2023-11-02,100000.0
2023-11-03,100000.0
2023-11-06,100000.0
2023-11-07,100000.0
2023-11-08,100000.0
2023-11-09,99647.990720752
2023-11-10,100202.20759392095
2023-11-13,100361.0061980585
2023-11-14,101532.33234772284
2023-11-15,101546.42116029533
2023-11-16,101973.71030180759
2023-11-17,102711.58541697152
2023-11-20,104516.90087885506
2023-11-21,103392.98266977914
2023-11-22,104054.92701774903
2023-11-24,104262.17988640137
2023-11-27,104426.49297767945
2023-11-28,105362.49799400635
2023-11-29,106171.38899320755
2023-11-30,106201.26028913651
2023-12-01,106528.05517582805
2023-12-04,106323.94269201672
2023-12-05,106498.82630941784
2023-12-06,105128.72627024594
2023-12-07,106098.86084629523
2023-12-08,107563.26310612189
2023-12-11,108305.73869256294
2023-12-12,109299.19176623313
2023-12-13,111322.45948168723
2023-12-14,111829.4715841445
2023-12-15,112115.27975637045
2023-12-18,112739.96583539572
2023-12-19,114195.11977100032
2023-12-20,111674.60280513421
2023-12-21,113977.73272609369
2023-12-22,114142.83321780816
2023-12-26,114677.29973238398
2023-12-27,115521.60477061487
2023-12-28,115454.37179942346
2023-12-29,114023.02056738306
2024-01-02,110951.10765142847
2024-01-03,109137.32514917078
2024-01-04,109386.50600902771
2024-01-05,109535.01336132264
2024-01-08,112089.16108547425
2024-01-09,112857.59524867106
2024-01-10,113593.66479823162
2024-01-11,114232.80296298457
2024-01-12,113877.81347836848
2024-01-16,114180.00355103693
2024-01-17,113050.0663008996
2024-01-18,114373.27191918573
2024-01-19,116508.33378461085
2024-01-22,117580.67196324549
2024-01-23,117520.33181777678
2024-01-24,117456.60111842834
2024-01-25,118018.73239050592
2024-01-26,117444.51439570916
2024-01-29,118796.81082332147
2024-01-30,117694.70398564448
2024-01-31,115591.17690875544
2024-02-01,116935.7939275291
2024-02-02,119180.657554027
2024-02-05,118067.58317137076
2024-02-06,117830.95737760855
2024-02-07,120007.06211012197
2024-02-08,120835.2310211022
2024-02-09,122002.55754026724
2024-02-12,121200.84204148542
2024-02-13,118963.33455927776
2024-02-14,121359.70286447753
2024-02-15,122827.60164513299
2024-02-16,121634.19628014276
2024-02-20,120010.5056333883
2024-02-21,116475.00112881066
2024-02-22,120439.76018158092
2024-02-23,122427.29857698169
2024-02-26,124310.05868306842
2024-02-27,126220.05203214374
2024-02-28,125699.57710424151
2024-02-29,127673.51833024707
2024-03-01,132099.6722961971
2024-03-04,133598.74750689045
2024-03-05,130292.85456959534
2024-03-06,132027.20220916223
2024-03-07,133910.40612857294
2024-03-08,133157.43179099512
2024-03-11,130475.7250510605
2024-03-12,132331.18340483605
2024-03-13,133884.82766503788
2024-03-14,132843.9410802612
2024-03-15,132243.72305171794
2024-03-18,133502.47447937037
2024-03-19,133334.5520388
2024-03-20,136736.94828644005
2024-03-21,139493.8879604417
2024-03-22,139030.05766293756
2024-03-25,139834.15334508172
2024-03-26,139830.15809628717
2024-03-27,139496.87308976403
2024-03-28,139636.48996922723
2024-04-01,139492.37392804376
2024-04-02,138243.5701932644
2024-04-03,140917.31702254526
2024-04-04,138559.7510563314
2024-04-05,141391.1925096999
2024-04-08,141396.83575730427
2024-04-09,139611.77730142308
2024-04-10,139027.92725308487
2024-04-11,140774.90881334912
2024-04-12,137661.03453740917
2024-04-15,135099.43235289393
2024-04-16,135731.13261958156
2024-04-17,134036.80651935277
2024-04-18,133321.90391682743
2024-04-19,131216.5236637995
2024-04-22,131478.2344715998
2024-04-23,132228.40684251045
2024-04-24,132132.9773533747
2024-04-25,132171.99990836735
2024-04-26,132507.891067425
2024-04-29,132600.28185264225
2024-04-30,132424.7670134699
2024-05-01,132067.7030944025
2024-05-02,132413.19522086735
2024-05-03,132857.9861449396
2024-05-06,133424.8321761286
2024-05-07,133240.71282589185
2024-05-08,133243.02609204027
2024-05-09,134501.86870994966
2024-05-10,134670.70605583355
2024-05-13,134297.52660071553
2024-05-14,134784.84914011532
2024-05-15,136356.49518946794
2024-05-16,134894.34046534685
2024-05-17,134760.18910662745
2024-05-20,136311.15680870242
2024-05-21,136509.00957347295
2024-05-22,135184.73660949894
2024-05-23,135144.75246609942
2024-05-24,138165.59525281208
2024-05-28,138615.71252042073
2024-05-29,137867.6466861367
2024-05-30,136678.8447840565
2024-05-31,135204.2051948346
2024-06-03,135686.28931384592
2024-06-04,134675.30892582468
2024-06-05,137284.15888027294
2024-06-06,135890.17560168885
2024-06-07,135280.03541016672
2024-06-10,137209.17558701607
2024-06-11,136886.29795521277
2024-06-12,138866.31276954015
2024-06-13,138644.82055428444
2024-06-14,137553.9427899989
2024-06-17,138746.15226188078
2024-06-18,139628.70923056972
2024-06-20,137424.55140891444
2024-06-21,136704.47917596062
2024-06-24,134766.54874705797
2024-06-25,136938.7186917871
2024-06-26,135966.88399234772
2024-06-27,136392.0557882919
2024-06-28,135279.61051973433
2024-07-01,135620.92536114942
2024-07-02,135968.00369214307
2024-07-03,137273.66691875987
2024-07-05,137779.55885375914
2024-07-08,138237.47099746644
2024-07-09,138848.5754860376
2024-07-10,140053.10001906526
2024-07-11,137439.62208403717
2024-07-12,138727.70156442962
2024-07-15,140060.3495060247
2024-07-16,140724.13732567534
2024-07-17,134243.79208029268
2024-07-18,133457.26179461458
2024-07-19,133344.3561442477
2024-07-22,134487.0768799176
2024-07-23,134673.95162814757
2024-07-24,131345.42005405313
2024-07-25,130604.32116386025
2024-07-26,131886.14828670875
2024-07-29,131359.6246947135
2024-07-30,130748.48012332409
2024-07-31,131401.36126689403
2024-08-01,130272.38175096591
2024-08-02,128233.12761724388
2024-08-05,127406.25362680542
2024-08-06,127650.30858133423
2024-08-07,127196.49632346802
2024-08-08,127495.79586112671
2024-08-09,127607.05504691773
2024-08-12,127496.7417534607
2024-08-13,127868.96699607544
2024-08-14,127827.43759238892
2024-08-15,128131.25259483032
2024-08-16,128339.98465868947
2024-08-19,128867.48300958163
2024-08-20,128739.12690311538
2024-08-21,129221.95637675058
2024-08-22,128617.16548346134
2024-08-23,129961.51757519718
2024-08-26,129349.39623158451
2024-08-27,129771.22832196232
2024-08-28,129081.02792637821
2024-08-29,129903.78093235966
2024-08-30,130955.29262822148
2024-09-03,127857.39518998141
2024-09-04,127733.94950173373
2024-09-05,127054.37847936436
2024-09-06,124947.64104447055
2024-09-09,126843.09756645847
2024-09-10,126362.02428052401
2024-09-11,127231.73389623142
2024-09-12,128477.73772618748
2024-09-13,129467.20680047394
2024-09-16,130872.17989129818
2024-09-17,131394.12867326787
2024-09-18,131544.05730031192
2024-09-19,132883.741478595
2024-09-20,134753.9695015366
2024-09-23,135581.69578174903
2024-09-24,135679.4036021645
2024-09-25,136757.67512113455
2024-09-26,135645.82514442815
2024-09-27,136060.119633335
2024-09-30,136696.64036526097
2024-10-01,135890.12735860242
2024-10-02,136958.28277474738
2024-10-03,137471.59937269508
2024-10-04,139851.41827907038
2024-10-07,138006.28934875087
2024-10-08,139161.72888817138
2024-10-09,139820.08856272124
2024-10-10,139663.04968896013
2024-10-11,141747.79096020863
2024-10-14,142460.03021802113
2024-10-15,141660.62567509816
2024-10-16,143595.98411931202
2024-10-17,143047.35777082416
2024-10-18,143353.98440788625
2024-10-21,143975.41006718716
2024-10-22,143161.4591979214
2024-10-23,142015.33744469716
2024-10-24,143061.02594935874
2024-10-25,142583.16746280936
2024-10-28,143813.96782094607
2024-10-29,144741.98613759005
2024-10-30,144152.12761941773
2024-10-31,141923.37364101713
2024-11-01,141064.5160530197
2024-11-04,140261.60589906512
2024-11-05,143785.28735276996
2024-11-06,149510.62955376253
2024-11-07,150454.7936009115
2024-11-08,153266.49964405573
2024-11-11,157239.38963497675
2024-11-12,155668.16395965166
2024-11-13,156909.9063866765
2024-11-14,156297.2706597478
2024-11-15,156312.399347473
2024-11-18,157346.67345307805
2024-11-19,160511.17091279832
2024-11-20,161096.9754705986
2024-11-21,163326.84899005966
2024-11-22,165493.01254672845
2024-11-25,165605.55979747613
2024-11-26,166210.27569217523
2024-11-27,165114.59297835382
2024-11-29,166757.81439473978
2024-12-02,165044.17719343057
2024-12-03,166048.73887407174
2024-12-04,168725.20196115365
2024-12-05,167726.91785966745
2024-12-06,168472.40966188302
2024-12-09,163902.1186964747
2024-12-10,162295.22514249233
2024-12-11,164631.39939906582
2024-12-12,163546.53406796535
2024-12-13,165005.16266331752
2024-12-16,166194.010536591
2024-12-17,162990.6025126747
2024-12-18,155353.5176765804
2024-12-19,155061.20408816
2024-12-20,156163.18979059288
2024-12-23,156306.47454248497
2024-12-24,156914.99060236046
2024-12-26,157740.45519443444
2024-12-27,156146.91834793438
2024-12-30,154999.67662008252
2024-12-31,154190.48195226636
2025-01-02,154316.43571275298
2025-01-03,155457.21399514738
2025-01-06,156180.43673532072
2025-01-07,154858.59209078277
2025-01-08,155129.74343084014
2025-01-10,153960.7956768042
2025-01-13,153673.0563121466
2025-01-14,154162.26262574524
2025-01-15,155067.88680558532
2025-01-16,155509.7943296942
2025-01-17,156167.1181288275
2025-01-21,157044.26400666565
2025-01-22,157627.5494950995
2025-01-23,158360.01640184264
2025-01-24,160461.3657232949
2025-01-27,154663.48890872687
2025-01-28,156979.19176534307
2025-01-29,157848.70688077869
2025-01-30,158865.30576647352
2025-01-31,157837.23073135834
2025-02-03,157733.6412152658
2025-02-04,161857.786890289
2025-02-05,162635.59347369353
2025-02-06,165513.84196874095
2025-02-07,165080.4392032622
2025-02-10,165447.16436576832
2025-02-11,164297.16742317198
2025-02-12,166368.9194803009
2025-02-13,167988.72762487974
2025-02-14,168374.5643797461
2025-02-18,168811.94730285514
2025-02-19,167202.63956009422
2025-02-20,162205.5248820533
2025-02-21,157666.83797623598
2025-02-24,156970.42842424015
2025-02-25,155073.6414315999
2025-02-26,155496.27796190386
2025-02-27,154493.74734658282
2025-02-28,155596.15247506183
2025-03-03,154961.86245981828
2025-03-04,153003.91911689105
2025-03-05,153153.31445835222
2025-03-06,151881.9287364894
2025-03-07,152028.55325965225
2025-03-10,151601.07176565687
2025-03-11,151277.8493449452
2025-03-12,151227.40558121228
2025-03-13,151159.50648288464
2025-03-14,151218.42264346813
2025-03-17,151300.1947305653
2025-03-18,151255.4994333241
2025-03-19,151266.16518192028
2025-03-20,151261.59432010388
2025-03-21,151207.75689487194
2025-03-24,151202.67775516247
2025-03-25,151119.8903253529
2025-03-26,151206.23327426647
2025-03-27,151193.53522281384
2025-03-28,151247.88133029675
2025-03-31,151283.4336908314
2025-04-01,151297.14668063854
2025-04-02,151305.78133945202
2025-04-03,151348.4451425526
2025-04-04,151044.42749376415
2025-04-07,151044.42749376415
2025-04-08,151044.42749376415
2025-04-09,151044.42749376415
2025-04-10,151044.42749376415
2025-04-11,151044.42749376415
2025-04-14,151044.42749376415
2025-04-15,151044.42749376415
2025-04-16,151044.42749376415
2025-04-17,151044.42749376415
2025-04-21,151044.42749376415
2025-04-22,151044.42749376415
2025-04-23,151044.42749376415
2025-04-24,151044.42749376415
2025-04-25,151044.42749376415
2025-04-28,151044.42749376415
2025-04-29,151044.42749376415
2025-04-30,151044.42749376415
2025-05-01,151044.42749376415
2025-05-02,151044.42749376415
2025-05-05,151625.5914350878
2025-05-06,151571.88501494337
2025-05-07,151797.16260283403
2025-05-08,152944.64144269252
2025-05-09,151443.58931801718
2025-05-12,152157.82818980244
2025-05-13,154643.492818035
2025-05-14,155473.30027214217
2025-05-15,155692.94933395245
2025-05-16,156903.12630666976
2025-05-19,158210.7763463426
2025-05-20,157941.42586544662
2025-05-21,155577.51593990068
2025-05-22,156031.94013253145
2025-05-23,155803.51597199586
2025-05-27,159170.5492704883
2025-05-28,159208.92838746417
2025-05-29,157579.76748234523
2025-05-30,159285.8653808285
2025-06-02,160928.4359088589
2025-06-03,162010.86129147303
2025-06-04,162197.4927421261
2025-06-05,162499.3761859585
2025-06-06,164668.996095245
2025-06-09,163422.78820378077
2025-06-10,162197.58903843653
2025-06-11,163869.34030300868
2025-06-12,162433.86598355067
2025-06-13,160230.09350353968
2025-06-16,162807.74450128138
2025-06-17,161991.0628642973
2025-06-18,163553.18412017194
2025-06-20,164280.07137770977
2025-06-23,166155.16880651418
2025-06-24,168548.12046927054
2025-06-25,167072.59183640114
2025-06-26,169516.3969815239
2025-06-27,170690.46943424837
2025-06-30,173618.78082743683
2025-07-01,169507.2035721878
2025-07-02,170690.69769885103
2025-07-03,172690.51403643648
2025-07-07,174595.2294026474
2025-07-08,172666.96513915242
2025-07-09,174444.22949614705
2025-07-10,173848.55923314655
2025-07-11,172775.842579513
2025-07-14,175631.14875919203
2025-07-15,175032.9440312715
2025-07-16,177246.300036526
2025-07-17,180086.80473366953
2025-07-18,181356.93326388486
2025-07-21,180670.8625489783
2025-07-22,177710.87704948685
2025-07-23,179872.00729684558
2025-07-24,179736.65624159737
2025-07-25,181112.67958089273
2025-07-28,182109.42094155416
2025-07-29,180904.83461236462
2025-07-30,184182.88184408305
2025-07-31,185199.96727108187
2025-08-01,180173.29594244613
2025-08-04,184165.86642072548
2025-08-05,182802.80097065607
2025-08-06,187929.74513217394
2025-08-07,186551.3573650558
2025-08-08,187091.4801808192
2025-08-11,186254.26330749766
2025-08-12,189558.96238455456
2025-08-13,188245.84306287902
2025-08-14,185842.9596642084
2025-08-15,185381.9274813891
2025-08-18,185940.7626267993
2025-08-19,180741.79215490833
2025-08-20,178885.43118075412
2025-08-21,178994.60383627933
2025-08-22,182105.9749910645
2025-08-25,182505.57050780338
2025-08-26,183811.85237974342
2025-08-27,183458.64553590567
2025-08-28,186636.88515531333
2025-08-29,184347.83500050008
2025-09-02,183810.433366485
2025-09-03,184169.80260362272
2025-09-04,188395.66609795738
2025-09-05,188491.04023865104
2025-09-08,189383.76023224235
2025-09-09,192814.47409896826
2025-09-10,194727.18133744484
2025-09-11,197076.22073373085
2025-09-12,195746.4614004255
2025-09-15,198114.84761954172
2025-09-16,196998.73620946176
2025-09-17,198156.27688021594
2025-09-18,200434.2488774846
2025-09-19,203272.02041717272
2025-09-22,204485.11013313037
2025-09-23,202645.17188348743
2025-09-24,200637.89360124874
2025-09-25,198504.08578307834
2025-09-26,199986.9411663448
2025-09-29,203789.87787662997
2025-09-30,204194.68968055453
2025-10-01,205935.01574406837
2025-10-02,207431.98228244425
2025-10-03,207056.2444615421
2025-10-06,207474.05338766414
2025-10-07,205905.46433566647
2025-10-08,209654.21122839
2025-10-09,210469.56824055125
2025-10-10,202979.12808438408
2025-10-13,207154.79663106072
2025-10-14,204578.96399448015
2025-10-15,206781.8293650896
2025-10-16,205603.51396443107
2025-10-17,204640.3547748406
2025-10-20,206802.43653834466
2025-10-21,204892.81677627433
2025-10-22,201582.49124926626
2025-10-23,206359.24679774343
2025-10-24,210921.2370393664
2025-10-27,214129.43031992723
2025-10-28,214044.0225863971
2025-10-29,219149.7436739673
2025-10-30,214016.13365139253
2025-10-31,216605.81381962518
2025-11-03,217343.06159014063
2025-11-04,209723.17749590235
2025-11-05,215707.59015441066
2025-11-06,212398.5803671711
2025-11-07,211107.3862700764
2025-11-10,215920.84611466562
2025-11-11,213027.07392156692
2025-11-12,213184.57529676528
2025-11-13,202942.25319321058
2025-11-14,202649.94989423596
2025-11-17,201148.33468940388
2025-11-18,199483.9649498714
2025-11-19,200089.91595771443
2025-11-20,195252.79875803457
2025-11-21,196136.71937693105
2025-11-24,198548.43155802236
2025-11-25,199084.63622797476
2025-11-26,199740.513543496
2025-11-28,200536.6108838399
2025-12-01,199049.51423054235
2025-12-02,198592.45066673798
2025-12-03,197885.3540133622
2025-12-04,198903.89089380254
2025-12-05,200239.47609077083
2025-12-08,201243.7305543453
2025-12-09,202643.16408120387
2025-12-10,206137.6457272922
2025-12-11,207323.20714077106
2025-12-12,199791.9308306438
2025-12-15,200298.7273353557
2025-12-16,198815.57427062793
2025-12-17,195780.6498360979
2025-12-18,198587.46384671802
2025-12-19,202191.23279813403
2025-12-22,204581.37053032228
2025-12-23,204478.03279712697
2025-12-24,205446.21775076824
2025-12-26,205029.2662241264
2025-12-29,202872.45769345624
2025-12-30,201839.83133463818
2025-12-31,199609.04405169445
2026-01-02,204902.75483666518
2026-01-05,207034.79486237623
2026-01-06,214713.7633500506
2026-01-07,211361.58140929323
2026-01-08,206928.99185217186
2026-01-09,211013.91870957846
2026-01-12,214805.94673619774
2026-01-13,216348.77682149436
2026-01-14,215023.809796119
2026-01-15,218031.50569287804
2026-01-16,219436.61355916684
2026-01-20,217564.1303575673
2026-01-21,221939.34714490557
2026-01-22,221939.09498196488
2026-01-23,220322.03599149585
2026-01-26,220470.24543726476
2026-01-27,226636.5899807218
2026-01-28,232368.2930313352
2026-01-29,231993.16463053258
2026-01-30,223605.15864647253
2026-02-02,228428.55557659033
2026-02-03,231032.84470956822
2026-02-04,224751.3464829081
2026-02-05,222536.93469234044
2026-02-06,229117.10169978673
2026-02-09,232509.39850230748
2026-02-10,229637.28521869273
2026-02-11,233191.37597797008
2026-02-12,231018.17529178236
2026-02-13,233047.7023112831
2026-02-17,233072.31952167128
2026-02-18,235365.91374469374
2026-02-19,237045.91302753065
2026-02-20,238594.7527403297
2026-02-23,238552.12472791667
2026-02-24,239851.89655561442
2026-02-25,242620.03332395552
2026-02-26,240159.54258801555
2026-02-27,239738.70705297374
2026-03-02,239741.16585424327
2026-03-03,232809.45478831517
2026-03-04,234672.3030778049
2026-03-05,230462.63922634162
2026-03-06,227845.2702369999
2026-03-09,229319.10888103556
2026-03-10,229435.50564769816
2026-03-11,229780.50441173624
2026-03-12,228581.55542186808
2026-03-13,228575.20665172648
2026-03-16,229717.5347614677
2026-03-17,230182.35048870157
2026-03-18,230601.15183308482
2026-03-19,230576.95753320385
2026-03-20,228975.03684773328
2026-03-23,229388.25482167126
2026-03-24,230033.64312733532
2026-03-25,230048.22329701306
2026-03-26,228047.15698378065
2026-03-27,227979.63461439588
2026-03-30,227079.25515485974
2026-03-31,227732.43890119763
2026-04-01,227966.030453932
2026-04-02,227984.19045759412
2026-04-06,227925.83050276013
2026-04-07,228012.13295078868
2026-04-08,228290.51069737072
2026-04-09,228641.78090000743
2026-04-10,228897.94984531993
2026-04-13,228895.75105381603
2026-04-14,228260.39147801936
2026-04-15,227734.77222523393
2026-04-16,231360.4661388062
2026-04-17,232446.31328910572
2026-04-20,232831.80500314911
2026-04-21,232979.4694966274
2026-04-22,236667.89809889585
2026-04-23,239365.49365924892
2026-04-24,239451.88080626278
2026-04-27,240405.8784030035
2026-04-28,233325.86337579647
2026-04-29,235852.76752198552
2026-04-30,245404.19960775506
2026-05-01,246390.03780355584
2026-05-04,247227.1791928373
2026-05-05,252880.21423572404
2026-05-06,260539.39462862146
2026-05-07,251044.54817247033
2026-05-08,261363.99852862878
2026-05-11,271371.4672207757
2026-05-12,264189.40416274965
2026-05-13,267318.45227605524
2026-05-14,268875.6683061761
2026-05-15,260922.48101745534
2026-05-18,253781.57282530397
2026-05-19,251421.80111501223
2026-05-20,255975.6882134912
2026-05-21,259184.01634403015
2026-05-22,263501.29768158175
2026-05-26,270430.25424221257
2026-05-27,267675.918939366
2026-05-28,268906.7039723494
2026-05-29,274609.59823504474
2026-06-01,280153.1634129622
2026-06-02,289311.42221468955
2026-06-03,289298.25326524617
2026-06-04,284592.19292234944
2026-06-05,268869.553815216
2026-06-08,271826.3928616943
2026-06-09,267063.16480120685
2026-06-10,261735.76623137988
2026-06-11,269542.379737697
2026-06-12,273544.6185746132
2026-06-15,279638.4114129012
2026-06-16,272019.6350168383
2026-06-17,272424.65117373184
2026-06-18,281103.7772778212
2026-06-22,286085.30286963755
2026-06-23,271898.1116562177
2026-06-24,271204.8435596927
2026-06-25,278257.78553433256
2026-06-26,267859.4839059445
2026-06-29,277213.3112222287
2026-06-30,284471.1797299802
2026-07-01,271784.72677117214
2026-07-02,257881.12008365744
2026-07-06,260754.17685340234
2026-07-07,253485.47993445885
2026-07-08,253800.25494795613
2026-07-09,258074.2533190804
2026-07-10,256874.350578785
2026-07-13,253453.46794034197
2026-07-14,258333.68584303185
2026-07-15,254856.49120970056
2026-07-16,253501.15509061486
2026-07-17,252989.90902908656
2026-07-20,251641.98378952357
2026-07-21,252498.24430289026
2026-07-22,251895.559389255
2026-07-23,250798.80927041956
2026-07-24,249632.07669103114
2026-07-27,248273.70306586876
2026-07-28,247011.1311781124
2026-07-29,246863.16068597068
2026-07-30,248240.99628014793
2026-07-31,248094.5784960903
2026-08-03,248556.200589291
2026-08-04,251609.87970945696
2026-08-05,250465.3498573556
2026-08-06,247231.75568711176
2026-08-07,248473.32977234735
2026-08-10,250937.07779875852
2026-08-11,251708.8093341284
2026-08-12,253270.72158270935
2026-08-13,255320.73831015686
2026-08-14,253829.5203519659
2026-08-17,253051.8410650244
2026-08-18,250456.11009460216
2026-08-19,249045.02262183418
2026-08-20,247664.20267331734
2026-08-21,250312.73089798773
2026-08-24,248362.82772428525
2026-08-25,248795.04150153746
2026-08-26,250366.84995122923
2026-08-27,252698.62267031492
2026-08-28,250230.26502030576
2026-08-31,250459.56027787412
2026-09-01,246949.63042966474
2026-09-02,246159.72505930343
2026-09-03,248729.98156818276
2026-09-04,245785.99663284663
2026-09-08,243715.22102814447
2026-09-09,242743.24302152218
2026-09-10,240280.89989441645
2026-09-11,242375.89618705073
2026-09-14,240177.49554203122
2026-09-15,242350.05171726315
2026-09-16,242908.5238280114
2026-09-17,246204.80322025385
2026-09-18,245305.84824710933
2026-09-21,245913.73017841426
2026-09-22,245997.87252593317
2026-09-23,246898.28099286737
2026-09-24,248802.47729456416
2026-09-25,247799.25094715206
2026-09-28,247694.41940077295
2026-09-29,247990.5048690652
2026-09-30,248699.04752501
2026-10-01,251120.3265510415
