,equity
2023-10-02,100000.0
2023-10-03,99869.74195048123
2023-10-04,99990.31417414456
2023-10-05,100043.89546778469
2023-10-06,100380.17829706936
2023-10-09,100757.94783700533
2023-10-10,100877.5587798459
2023-10-11,101125.65792798446
2023-10-12,101115.71497954828
2023-10-13,100354.979105307
2023-10-16,100754.87916097106
2023-10-17,100914.9813380735
2023-10-18,100063.88368042732
2023-10-19,98897.6197680489
2023-10-20,97997.09523721515
2023-10-23,98062.70091844992
2023-10-24,98340.61441484504
2023-10-25,97466.78173725655
2023-10-26,96942.79608055337
2023-10-27,96935.32031913979
2023-10-30,97016.67340514214
2023-10-31,97146.92957541496
2023-11-01,97514.8303334716
2023-11-02,97663.84357237846
2023-11-03,98102.16479826195
2023-11-06,98199.64642293387
2023-11-07,98323.35598996026
2023-11-08,98514.2198677755
2023-11-09,98168.51914466634
2023-11-10,99532.76392000356
2023-11-13,99800.4395849053
2023-11-14,101824.46352115329
2023-11-15,101541.59295001681
2023-11-16,101399.28804334247
2023-11-17,102015.51997214662
2023-11-20,103690.77890699159
2023-11-21,102960.81721418153
2023-11-22,103820.62429696579
2023-11-24,104284.76071244736
2023-11-27,105001.02923470993
2023-11-28,106407.27107080417
2023-11-29,107301.15623542591
2023-11-30,107222.34922477527
2023-12-01,108434.9034388676
2023-12-04,108845.86827498523
2023-12-05,108880.31967764942
2023-12-06,107533.13841570559
2023-12-07,108811.85654567853
2023-12-08,110728.01405452863
2023-12-11,110819.58425920621
2023-12-12,111528.01067467258
2023-12-13,113577.4995366225
2023-12-14,113868.62823920582
2023-12-15,113800.06483130787
2023-12-18,114723.91918902729
2023-12-19,116297.10269408558
2023-12-20,113969.7157285056
2023-12-21,116093.14784024571
2023-12-22,116192.53835423802
2023-12-26,116300.06737603855
2023-12-27,117394.02138872615
2023-12-28,117310.47540425073
2023-12-29,115651.24946354638
2024-01-02,112251.59015211022
2024-01-03,110348.83860335106
2024-01-04,110843.5299128389
2024-01-05,111012.33387812454
2024-01-08,113692.15359465774
2024-01-09,114335.36917434016
2024-01-10,114994.98052000438
2024-01-11,115710.98364424144
2024-01-12,115043.22006093149
2024-01-16,115348.63428800058
2024-01-17,114264.5929016572
2024-01-18,115668.4368155126
2024-01-19,117685.44682546896
2024-01-22,118698.27183780962
2024-01-23,118351.58452866942
2024-01-24,119042.70245610624
2024-01-25,119851.41637097746
2024-01-26,119772.78708897978
2024-01-29,121704.9009262219
2024-01-30,120295.71528825346
2024-01-31,118211.28670092742
2024-02-01,119712.64713918087
2024-02-02,123079.01860325201
2024-02-05,122250.971186565
2024-02-06,121900.32934977302
2024-02-07,124269.52903391609
2024-02-08,124932.90177943
2024-02-09,125451.79989402351
2024-02-12,124850.22131888923
2024-02-13,122951.29578132209
2024-02-14,125501.99611359462
2024-02-15,127525.59843075828
2024-02-16,126198.54772187308
2024-02-20,124155.09127748679
2024-02-21,120577.53017987697
2024-02-22,126372.3754605054
2024-02-23,128029.59266364566
2024-02-26,130859.56613719455
2024-02-27,133169.5174368619
2024-02-28,132274.33017718783
2024-02-29,134685.890662074
2024-03-01,140105.1554030179
2024-03-04,143226.82091128817
2024-03-05,139279.78943328647
2024-03-06,141623.84922825554
2024-03-07,143886.36210941247
2024-03-08,143234.47473167352
2024-03-11,140108.66756395716
2024-03-12,142417.45709456355
2024-03-13,144148.6717836684
2024-03-14,142434.86102323068
2024-03-15,141472.85538326943
2024-03-18,142932.7483706956
2024-03-19,142985.38441779886
2024-03-20,146635.8574889368
2024-03-21,148905.4313825128
2024-03-22,148592.08107010814
2024-03-25,149910.726497812
2024-03-26,149425.88855568858
2024-03-27,148581.9642440507
2024-03-28,148643.08595292064
2024-04-01,148318.89038865062
2024-04-02,147198.1995956132
2024-04-03,150128.38588284847
2024-04-04,147466.28584140743
2024-04-05,150439.07796770986
2024-04-08,150604.67707886256
2024-04-09,148136.3106923186
2024-04-10,147877.99724661047
2024-04-11,149705.47396200168
2024-04-12,146330.03721812216
2024-04-15,142927.2108732782
2024-04-16,143838.4662844263
2024-04-17,141937.90660426434
2024-04-18,141240.1215468144
2024-04-19,139012.01629269178
2024-04-22,139335.68305599745
2024-04-23,140077.73968177795
2024-04-24,139892.75592787346
2024-04-25,140819.90509944755
2024-04-26,141139.57612850028
2024-04-29,141524.95224026503
2024-04-30,140457.0897584628
2024-05-01,139774.08567341644
2024-05-02,142518.94239744957
2024-05-03,143981.43815319933
2024-05-06,146074.75281804003
2024-05-07,144823.30200665395
2024-05-08,145443.7907923452
2024-05-09,145909.13408991572
2024-05-10,145785.26167289287
2024-05-13,144930.25512168062
2024-05-14,145894.25779322223
2024-05-15,148028.32171801166
2024-05-16,146084.15414782183
2024-05-17,146160.2869318229
2024-05-20,147464.8200368624
2024-05-21,148043.34154412558
2024-05-22,146543.3733536196
2024-05-23,146754.78749674346
2024-05-24,150049.34387629508
2024-05-28,150256.69120638847
2024-05-29,149570.19396384247
2024-05-30,148738.6645432437
2024-05-31,146120.4924733378
2024-06-03,146139.91886636606
2024-06-04,145493.3280317866
2024-06-05,148467.17073189997
2024-06-06,146901.90264060814
2024-06-07,146111.616151625
2024-06-10,147912.0046455129
2024-06-11,147487.62387628693
2024-06-12,150054.36684579987
2024-06-13,149470.8056325888
2024-06-14,148164.19204961107
2024-06-17,149536.83478500537
2024-06-18,150583.82319976977
2024-06-20,148293.16437435924
2024-06-21,147780.3872807319
2024-06-24,146272.01114884438
2024-06-25,148782.2948781916
2024-06-26,147288.10527258285
2024-06-27,147248.26485096343
2024-06-28,146053.91448401337
2024-07-01,146285.40622060964
2024-07-02,146644.71417728992
2024-07-03,148348.85629551503
2024-07-05,148918.62841683062
2024-07-08,149319.7459171358
2024-07-09,150002.8030288759
2024-07-10,151777.6768216768
2024-07-11,148821.78468250902
2024-07-12,150794.28565420397
2024-07-15,152678.33885859413
2024-07-16,153769.8015513231
2024-07-17,145986.12261218583
2024-07-18,145268.41628571125
2024-07-19,144873.00906625658
2024-07-22,146240.94199720296
2024-07-23,146168.155268344
2024-07-24,142140.99752868564
2024-07-25,141222.7921981389
2024-07-26,142340.05967345927
2024-07-29,141695.4279030261
2024-07-30,141307.85493935365
2024-07-31,142203.32012151583
2024-08-01,139915.11610253455
2024-08-02,136272.59441136778
2024-08-05,134657.13940616124
2024-08-06,135373.91589914958
2024-08-07,134541.52375875652
2024-08-08,136366.36927877605
2024-08-09,136725.45531822194
2024-08-12,136554.622269699
2024-08-13,137286.18907413122
2024-08-14,137894.0047975504
2024-08-15,138606.94778687297
2024-08-16,139580.2792644654
2024-08-19,140611.41923052544
2024-08-20,140558.08866787533
2024-08-21,141450.54382271058
2024-08-22,141164.1114792276
2024-08-23,142361.81312212997
2024-08-26,141850.25227866226
2024-08-27,142659.95192465835
2024-08-28,141999.79383597427
2024-08-29,143007.45590148025
2024-08-30,143806.68147501998
2024-09-03,140997.46044443373
2024-09-04,140686.68623111612
2024-09-05,139863.09352361184
2024-09-06,137690.29670649438
2024-09-09,139744.0838811787
2024-09-10,139773.93893266143
2024-09-11,140930.3140156311
2024-09-12,142757.97900796356
2024-09-13,144410.6814135414
2024-09-16,146126.07463609683
2024-09-17,146434.1689735602
2024-09-18,146379.5186544608
2024-09-19,147476.72877656925
2024-09-20,148921.40798913944
2024-09-23,149903.21514665592
2024-09-24,150003.53304063785
2024-09-25,150798.52177583682
2024-09-26,149348.9669634055
2024-09-27,150101.7941414069
2024-09-30,151186.5237814139
2024-10-01,150779.281164585
2024-10-02,151798.98467006482
2024-10-03,152154.71010865018
2024-10-04,154336.1712946964
2024-10-07,152719.0397586205
2024-10-08,154313.1644912761
2024-10-09,154421.9190878612
2024-10-10,153888.58014328062
2024-10-11,157454.92302165873
2024-10-14,159520.51378093607
2024-10-15,158408.89071303143
2024-10-16,160580.5226061894
2024-10-17,159124.29681425824
2024-10-18,160734.91948920026
2024-10-21,161411.17567646955
2024-10-22,160216.06115961022
2024-10-23,158865.09400453515
2024-10-24,160712.3126370936
2024-10-25,160319.99935378364
2024-10-28,162695.82078421413
2024-10-29,163431.45756399928
2024-10-30,162725.60492264188
2024-10-31,160125.2735621939
2024-11-01,158625.6067150458
2024-11-04,157608.0270870797
2024-11-05,163112.50026783752
2024-11-06,171033.4719245474
2024-11-07,172106.2906987707
2024-11-08,180035.06011704652
2024-11-11,183787.36135673925
2024-11-12,180792.58517518864
2024-11-13,181176.25081501345
2024-11-14,180065.40198586616
2024-11-15,180443.58471514581
2024-11-18,181234.16757979698
2024-11-19,183712.02224791137
2024-11-20,183810.79861128415
2024-11-21,186313.782257677
2024-11-22,189588.4461599597
2024-11-25,190307.85662548247
2024-11-26,189570.96113558102
2024-11-27,187428.58487424272
2024-11-29,188906.80572600357
2024-12-02,186730.41642088883
2024-12-03,187962.97774016752
2024-12-04,191104.88331782713
2024-12-05,190802.41733729735
2024-12-06,191963.29107844725
2024-12-09,186375.818930141
2024-12-10,184990.90484508086
2024-12-11,188193.19296083183
2024-12-12,186635.33962887689
2024-12-13,188341.89275807305
2024-12-16,189981.57394421462
2024-12-17,187034.55634327835
2024-12-18,177785.38526605017
2024-12-19,177743.1223551475
2024-12-20,179796.2320493738
2024-12-23,180336.08914571014
2024-12-24,181790.5634812204
2024-12-26,182650.48061671696
2024-12-27,179977.83727916665
2024-12-30,178071.35675375315
2024-12-31,176847.3825992808
2025-01-02,177429.44702663657
2025-01-03,179928.8189270615
2025-01-06,180955.13263950963
2025-01-07,177588.53417620703
2025-01-08,177831.61627590796
2025-01-10,175374.67002192617
2025-01-13,174394.7270669823
2025-01-14,175369.39285842926
2025-01-15,176636.4468764499
2025-01-16,177226.50932811003
2025-01-17,178587.7745843833
2025-01-21,181859.67448054726
2025-01-22,184122.84117518837
2025-01-23,185733.3609665596
2025-01-24,187111.5818978035
2025-01-27,172278.51523040186
2025-01-28,174896.53954909692
2025-01-29,175173.09601103648
2025-01-30,176459.54230983643
2025-01-31,175761.78990562347
2025-02-03,176029.6300509346
2025-02-04,179128.36752691117
2025-02-05,180888.00249900977
2025-02-06,182284.44896853995
2025-02-07,181973.20639753423
2025-02-10,182957.14287588734
2025-02-11,181419.80618592672
2025-02-12,182786.02808804385
2025-02-13,186525.7616819159
2025-02-14,187263.00697267216
2025-02-18,187772.6822121907
2025-02-19,185394.7013222627
2025-02-20,179910.20608183643
2025-02-21,172948.5058831821
2025-02-24,171731.08606039282
2025-02-25,169707.19564127125
2025-02-26,170130.5098856176
2025-02-27,169114.51908266178
2025-02-28,169677.70740370135
2025-03-03,168982.9934724017
2025-03-04,167169.88894531305
2025-03-05,167622.81377046186
2025-03-06,164939.09482579364
2025-03-07,164562.10242664977
2025-03-10,163115.22756885047
2025-03-11,161913.23742241418
2025-03-12,161731.385707563
2025-03-13,161672.72457053908
2025-03-14,161846.16611411818
2025-03-17,162295.42753597358
2025-03-18,161617.65763270317
2025-03-19,161531.54302393852
2025-03-20,161543.27321040092
2025-03-21,161278.8254394659
2025-03-24,161652.60398103084
2025-03-25,161600.10067861454
2025-03-26,161444.7004863538
2025-03-27,161716.77050130742
2025-03-28,161535.04176734493
2025-03-31,161942.88700895262
2025-04-01,161933.5341952319
2025-04-02,161871.17642426613
2025-04-03,162051.1771580434
2025-04-04,158104.27163446468
2025-04-07,157201.56778927732
2025-04-08,157136.31324978758
2025-04-09,157283.99795420945
2025-04-10,157485.18982585252
2025-04-11,157762.2596119243
2025-04-14,158012.99655557505
2025-04-15,157876.1569254481
2025-04-16,157779.06791783325
2025-04-17,157936.77746678345
2025-04-21,157214.28568848793
2025-04-22,157768.17803518518
2025-04-23,157425.83563719335
2025-04-24,157651.8216219956
2025-04-25,157359.38388150075
2025-04-28,157462.67052548268
2025-04-29,158116.60040628104
2025-04-30,159903.579933949
2025-05-01,160322.86000364256
2025-05-02,163194.91078031494
2025-05-05,163252.42489293244
2025-05-06,162715.68003221968
2025-05-07,163723.47866225248
2025-05-08,165151.91215541807
2025-05-09,163916.45243294368
2025-05-12,164952.72104735253
2025-05-13,168374.1453747752
2025-05-14,169259.69547142938
2025-05-15,169913.3265825744
2025-05-16,171554.1054561706
2025-05-19,173407.87019616083
2025-05-20,173168.7707087795
2025-05-21,170339.15348587913
2025-05-22,170730.6353874924
2025-05-23,170973.514991832
2025-05-27,174178.6353455307
2025-05-28,174234.27969748992
2025-05-29,172454.74362571258
2025-05-30,174979.47598655242
2025-06-02,176995.11075599212
2025-06-03,178304.93940742037
2025-06-04,178674.03243299408
2025-06-05,178803.224673156
2025-06-06,181030.6311081688
2025-06-09,179176.17628475875
2025-06-10,177397.51293932542
2025-06-11,179622.90925179925
2025-06-12,178553.50617613853
2025-06-13,176947.07296404074
2025-06-16,179273.95388191793
2025-06-17,178435.6237740617
2025-06-18,179891.29877711346
2025-06-20,180331.18849207927
2025-06-23,182204.86297821783
2025-06-24,185155.09847054267
2025-06-25,183580.7607481916
2025-06-26,186663.51408151153
2025-06-27,187673.1242747641
2025-06-30,191793.97411111358
2025-07-01,186303.5845542288
2025-07-02,187888.50840483102
2025-07-03,190149.09278303536
2025-07-07,192087.1413460389
2025-07-08,189372.16027484904
2025-07-09,192176.6298094596
2025-07-10,190531.86200793067
2025-07-11,189945.92066051858
2025-07-14,193226.19069340127
2025-07-15,193014.39562276832
2025-07-16,195339.55492071144
2025-07-17,197938.9148770866
2025-07-18,199729.0809557609
2025-07-21,199041.6045434605
2025-07-22,194720.61334484856
2025-07-23,197381.275894902
2025-07-24,197798.0061711498
2025-07-25,199641.16256446036
2025-07-28,200899.9292507498
2025-07-29,199805.9216384451
2025-07-30,203993.05376086637
2025-07-31,205343.43166017553
2025-08-01,199673.25832309836
2025-08-04,202909.19982833858
2025-08-05,201596.2101801783
2025-08-06,206762.42930028186
2025-08-07,206200.68701993945
2025-08-08,206823.15088241198
2025-08-11,205776.90034988025
2025-08-12,209707.66355210147
2025-08-13,208481.1181047749
2025-08-14,204136.9197811882
2025-08-15,203079.5557515642
2025-08-18,203879.62918140733
2025-08-19,197828.34867663565
2025-08-20,196126.2100879567
2025-08-21,196329.3043521779
2025-08-22,200134.71523894242
2025-08-25,201040.74199121597
2025-08-26,202657.98281080558
2025-08-27,202236.6925333245
2025-08-28,206463.2197846024
2025-08-29,203408.20586615324
2025-09-02,202483.1330678789
2025-09-03,203109.68404080704
2025-09-04,208518.00646404465
2025-09-05,208377.0756118396
2025-09-08,209675.47101856262
2025-09-09,211755.44130414148
2025-09-10,215712.57209485193
2025-09-11,218965.371558124
2025-09-12,217147.60401813072
2025-09-15,220235.94973079246
2025-09-16,219758.76463338037
2025-09-17,221385.82862111228
2025-09-18,224529.67230626242
2025-09-19,227344.003329223
2025-09-22,228113.20363706906
2025-09-23,225070.4763822058
2025-09-24,222054.64237167797
2025-09-25,219570.24185719964
2025-09-26,220876.6116477804
2025-09-29,225322.2360160856
2025-09-30,226484.18044513225
2025-10-01,229230.08907258097
2025-10-02,230274.18420350138
2025-10-03,228054.27494540974
2025-10-06,228841.09376404743
2025-10-07,227257.31574945638
2025-10-08,231487.3813101284
2025-10-09,232127.2601632473
2025-10-10,223536.96830201
2025-10-13,229593.41860413403
2025-10-14,227693.9878296736
2025-10-15,230668.865060829
2025-10-16,229881.01334108014
2025-10-17,228862.83071336406
2025-10-20,231263.0396877168
2025-10-21,229706.97228029493
2025-10-22,225550.9289339869
2025-10-23,231744.33124340462
2025-10-24,236524.19796978403
2025-10-27,240322.0693696623
2025-10-28,240341.3221776762
2025-10-29,247877.28288316948
2025-10-30,242729.21873645927
2025-10-31,244501.22269740226
2025-11-03,246028.61278218008
2025-11-04,236775.98897236565
2025-11-05,244317.90113090444
2025-11-06,240019.9937476226
2025-11-07,238868.96812628227
2025-11-10,244206.41373791557
2025-11-11,240856.51087407547
2025-11-12,241064.87081555586
2025-11-13,229227.93556967942
2025-11-14,228665.89261312885
2025-11-17,226881.07851834001
2025-11-18,225276.91127287128
2025-11-19,226600.760956301
2025-11-20,218939.99280309363
2025-11-21,220702.35798861
2025-11-24,224786.40484463586
2025-11-25,226057.88392102224
2025-11-26,228693.30813877314
2025-11-28,230819.5815573938
2025-12-01,228643.7224404298
2025-12-02,227732.85698980364
2025-12-03,226687.68299642595
2025-12-04,227673.28609074347
2025-12-05,230550.71066372044
2025-12-08,231464.593160437
2025-12-09,233219.96940535362
2025-12-10,237009.49793702323
2025-12-11,238400.7897668496
2025-12-12,228273.7546628536
2025-12-15,228429.4152616085
2025-12-16,227567.81457462086
2025-12-17,222814.18466624717
2025-12-18,227367.1920903579
2025-12-19,233855.8430570403
2025-12-22,237843.0975686836
2025-12-23,237351.09500340588
2025-12-24,238623.6372044215
2025-12-26,237559.43915678357
2025-12-29,234972.6245243678
2025-12-30,233908.20066191052
2025-12-31,231158.77937931224
2026-01-02,238061.89075499828
2026-01-05,239848.65723055575
2026-01-06,251042.56011830783
2026-01-07,247422.83589510625
2026-01-08,240750.94830251302
2026-01-09,245741.19005432737
2026-01-12,250903.65439557843
2026-01-13,252672.88539048782
2026-01-14,251610.67886495986
2026-01-15,253756.836786194
2026-01-16,255354.87097827165
2026-01-20,252370.86250776687
2026-01-21,256822.6862977846
2026-01-22,255843.77735290863
2026-01-23,253632.35190832216
2026-01-26,253807.01795275233
2026-01-27,260043.71209564325
2026-01-28,265157.19255619164
2026-01-29,264268.004943371
2026-01-30,254383.79056414033
2026-02-02,259191.10255843293
2026-02-03,261491.55394556088
2026-02-04,253999.43441615597
2026-02-05,252916.28697506868
2026-02-06,261854.98651425325
2026-02-09,266572.23227713275
2026-02-10,262316.7322947744
2026-02-11,265201.11922973907
2026-02-12,261103.59684347926
2026-02-13,264554.19793321565
2026-02-17,264352.58403077826
2026-02-18,267495.8906866621
2026-02-19,269287.4040384253
2026-02-20,272457.79228794103
2026-02-23,273457.9419684869
2026-02-24,276641.3784766656
2026-02-25,280649.3198706475
2026-02-26,276807.87407352385
2026-02-27,274972.4919410896
2026-03-02,277625.2224396248
2026-03-03,265577.5837991743
2026-03-04,268558.46566307446
2026-03-05,259929.54134722304
2026-03-06,252172.773178663
2026-03-09,257999.83896072628
2026-03-10,259958.08234711597
2026-03-11,261568.5159087188
2026-03-12,259544.665537844
2026-03-13,259444.2271798423
2026-03-16,264698.15852021216
2026-03-17,266019.21925068647
2026-03-18,268419.63479001616
2026-03-19,273372.98944669345
2026-03-20,264105.1922398793
2026-03-23,264767.80531132093
2026-03-24,273163.2781546029
2026-03-25,273415.7444066836
2026-03-26,264027.3334571902
2026-03-27,265902.1091453616
2026-03-30,257352.02949861274
2026-03-31,258688.2543025373
2026-04-01,258005.47007834603
2026-04-02,263006.8675454021
2026-04-06,262887.7892397685
2026-04-07,265908.0255003129
2026-04-08,269468.17584444716
2026-04-09,270043.53782019333
2026-04-10,273417.36886923504
2026-04-13,277710.36748449993
2026-04-14,280343.4713281889
2026-04-15,277720.8382702208
2026-04-16,283371.8629824352
2026-04-17,278394.3804965746
2026-04-20,280240.137406137
2026-04-21,281454.94684652094
2026-04-22,287536.8552321776
2026-04-23,289129.79650515167
2026-04-24,292252.75702110754
2026-04-27,292760.01511549845
2026-04-28,282397.45510296256
2026-04-29,291923.9456281091
2026-04-30,299979.2994049075
2026-05-01,303237.21506576566
2026-05-04,305876.18852596823
2026-05-05,316110.8262846743
2026-05-06,328952.909599551
2026-05-07,316377.0199661134
2026-05-08,328777.6531614625
2026-05-11,339045.0461068923
2026-05-12,329217.2066779236
2026-05-13,333375.6459582084
2026-05-14,334557.58204866253
2026-05-15,324242.0625788226
2026-05-18,315458.3445680389
2026-05-19,313154.1124758556
2026-05-20,317963.72754781507
2026-05-21,320436.68126952526
2026-05-22,325941.57545503334
2026-05-26,334869.4934182275
2026-05-27,332068.6039719689
2026-05-28,334046.6388396672
2026-05-29,341132.41302463424
2026-06-01,347113.9112698735
2026-06-02,359886.7064457463
2026-06-03,360244.7732667973
2026-06-04,355638.4509551408
2026-06-05,331219.71984718886
2026-06-08,337746.3239884242
2026-06-09,329564.3942241091
2026-06-10,323178.7910242152
2026-06-11,335952.59476382396
2026-06-12,340171.74980819656
2026-06-15,348472.27360817953
2026-06-16,337638.8216804074
2026-06-17,338994.22238383756
2026-06-18,349850.5404863644
2026-06-22,357019.1176793344
2026-06-23,338598.0401772042
2026-06-24,337885.14664733363
2026-06-25,345135.0504004015
2026-06-26,330454.1536945638
2026-06-29,344495.4329914388
2026-06-30,353588.5230740804
2026-07-01,335663.4717615417
2026-07-02,317425.0872213097
2026-07-06,320939.72487847524
2026-07-07,313192.8016945739
2026-07-08,313821.0153716165
2026-07-09,319599.2454152185
2026-07-10,317299.88465191284
2026-07-13,312868.2042142537
2026-07-14,318129.45428471087
2026-07-15,312779.2394251223
2026-07-16,309408.407089705
2026-07-17,309899.9713724275
2026-07-20,307816.46266837424
2026-07-21,309188.9775011877
2026-07-22,308358.7987404531
2026-07-23,305693.28925885045
2026-07-24,303617.2549711155
2026-07-27,301623.5854987649
2026-07-28,301507.46103261685
2026-07-29,300972.1637064831
2026-07-30,302371.6688761972
2026-07-31,301430.45291453967
2026-08-03,301104.86860301625
2026-08-04,305199.3541879412
2026-08-05,302582.05657201714
2026-08-06,298088.7877070225
2026-08-07,300615.68359249004
2026-08-10,305412.19687967247
2026-08-11,306686.604141788
2026-08-12,308711.8055024905
2026-08-13,312451.1327653689
2026-08-14,310114.413971805
2026-08-17,309532.5165842318
2026-08-18,307005.1874234001
2026-08-19,306220.2198600884
2026-08-20,304949.86773571395
2026-08-21,307937.9061919517
2026-08-24,304826.6684824638
2026-08-25,304803.4739899864
2026-08-26,306992.27639706584
2026-08-27,309703.4603494737
2026-08-28,305792.73172333295
2026-08-31,307051.9862113243
2026-09-01,303290.12291090924
2026-09-02,301163.6051006114
2026-09-03,304186.12196614244
2026-09-04,300517.669795043
2026-09-08,298253.4067759494
2026-09-09,297224.9816672305
2026-09-10,292735.1221937515
2026-09-11,296092.02127189847
2026-09-14,292345.24733874726
2026-09-15,295926.78800302336
2026-09-16,297622.60920146387
2026-09-17,304636.47121782135
2026-09-18,303640.5278164847
2026-09-21,306476.741431864
2026-09-22,307501.64202752133
2026-09-23,308906.844198847
2026-09-24,312613.9334102728
2026-09-25,311454.54799028987
2026-09-28,310534.65118099423
2026-09-29,312030.51947016356
2026-09-30,312443.8640021765
2026-10-01,316045.0637893164
