,equity
2023-10-02,100000.0
2023-10-03,99869.74195048123
2023-10-04,99990.31417414456
2023-10-05,100043.89546778469
2023-10-06,100380.17829706936
2023-10-09,100757.94783700533
2023-10-10,100877.5587798459
2023-10-11,101125.65792798446
2023-10-12,101115.71497954828
2023-10-13,100354.979105307
2023-10-16,100754.87916097106
2023-10-17,100914.9813380735
2023-10-18,100063.88368042732
2023-10-19,98953.14661058533
2023-10-20,98119.21820249328
2023-10-23,98184.51973028567
2023-10-24,98396.74980077746
2023-10-25,97591.03354012012
2023-10-26,97046.06555309467
2023-10-27,97097.58326091937
2023-10-30,97110.51601305942
2023-10-31,97244.117398176
2023-11-01,97553.3286039255
2023-11-02,97631.18460101107
2023-11-03,98073.15543169192
2023-11-06,97937.70353127841
2023-11-07,98209.20068833164
2023-11-08,98360.22874308779
2023-11-09,98032.10464596948
2023-11-10,99360.2569225274
2023-11-13,99725.79994189081
2023-11-14,101906.52786922734
2023-11-15,101872.37202358525
2023-11-16,101727.3836833782
2023-11-17,102327.6801187131
2023-11-20,103933.12936035129
2023-11-21,103222.74024215671
2023-11-22,104040.28151718112
2023-11-24,104461.99899497959
2023-11-27,105206.39630523654
2023-11-28,106645.76389085184
2023-11-29,107655.10190967414
2023-11-30,107577.97887424323
2023-12-01,108894.07896045539
2023-12-04,109355.94169665602
2023-12-05,109384.18818904189
2023-12-06,108190.63759167175
2023-12-07,109426.49452185992
2023-12-08,111269.56482673052
2023-12-11,111398.65189814928
2023-12-12,112113.76895798305
2023-12-13,114130.16294489864
2023-12-14,114451.06449465755
2023-12-15,114490.73011736873
2023-12-18,115340.04341845516
2023-12-19,116941.99181704524
2023-12-20,114602.6543385792
2023-12-21,116712.3563496876
2023-12-22,116761.50329716686
2023-12-26,116938.26543630626
2023-12-27,118058.98340679194
2023-12-28,117949.74429168094
2023-12-29,116258.34989489902
2024-01-02,112865.91089850222
2024-01-03,110943.8546001105
2024-01-04,111515.7717296271
2024-01-05,111735.95148836977
2024-01-08,114245.23325100829
2024-01-09,115027.09600062613
2024-01-10,115656.83175985693
2024-01-11,116315.07078878759
2024-01-12,115682.1593344602
2024-01-16,115905.52293836889
2024-01-17,114876.86803044958
2024-01-18,116435.84754933996
2024-01-19,118266.20600766821
2024-01-22,119452.5509612052
2024-01-23,119232.12801320288
2024-01-24,119880.01938990805
2024-01-25,120563.59469203207
2024-01-26,120101.5620834743
2024-01-29,122057.61506198993
2024-01-30,120858.87390064349
2024-01-31,118834.1814483272
2024-02-01,120157.25322080917
2024-02-02,123543.72839124018
2024-02-05,122868.623441289
2024-02-06,122633.26444340235
2024-02-07,124921.87739658839
2024-02-08,125492.62657642848
2024-02-09,126297.28401091824
2024-02-12,125642.16452697049
2024-02-13,124085.53006431638
2024-02-14,126588.86783702527
2024-02-15,128851.46146526223
2024-02-16,127561.28399410135
2024-02-20,125591.71984269144
2024-02-21,121984.188381402
2024-02-22,127928.32104862783
2024-02-23,129330.89137734029
2024-02-26,132217.87200058554
2024-02-27,134837.59574402426
2024-02-28,133999.51509122312
2024-02-29,136461.66117314756
2024-03-01,140430.29339055478
2024-03-04,144104.5308726257
2024-03-05,140391.66122581722
2024-03-06,143084.1169948983
2024-03-07,145314.63297466515
2024-03-08,144720.6616897988
2024-03-11,141388.3868682744
2024-03-12,143706.9857903964
2024-03-13,145616.8840975233
2024-03-14,144006.09298349346
2024-03-15,143075.76653098644
2024-03-18,144507.71891544503
2024-03-19,144641.48550578472
2024-03-20,148536.40141947492
2024-03-21,151109.61160452588
2024-03-22,150669.0767638488
2024-03-25,151766.7518431945
2024-03-26,151264.84925490714
2024-03-27,150608.09759074546
2024-03-28,150152.61721831656
2024-04-01,149595.78780585623
2024-04-02,148223.65329867697
2024-04-03,151131.87278030743
2024-04-04,148727.6473789097
2024-04-05,151646.3772457642
2024-04-08,151888.22925856875
2024-04-09,149777.84929393366
2024-04-10,149281.296640133
2024-04-11,151301.42037204947
2024-04-12,147712.88615035813
2024-04-15,144326.9886573437
2024-04-16,145296.35863148005
2024-04-17,143380.73528319306
2024-04-18,142603.92532806043
2024-04-19,140410.45540614496
2024-04-22,140668.97883456596
2024-04-23,141527.99596162036
2024-04-24,141196.72130301173
2024-04-25,141857.5286435263
2024-04-26,142098.1688489096
2024-04-29,142289.82697821432
2024-04-30,141379.76635149936
2024-05-01,140814.57902316074
2024-05-02,143471.33698824863
2024-05-03,144839.84069138396
2024-05-06,146801.13913040984
2024-05-07,145648.89177346343
2024-05-08,145854.96740587917
2024-05-09,145991.16580408142
2024-05-10,145720.67312681995
2024-05-13,145231.9434062097
2024-05-14,146063.38469545761
2024-05-15,147845.41579668442
2024-05-16,146148.4269154332
2024-05-17,145992.8733343067
2024-05-20,147510.4875586078
2024-05-21,147932.6350548056
2024-05-22,146524.96850678878
2024-05-23,146265.728953677
2024-05-24,149566.2530522793
2024-05-28,149562.52340559656
2024-05-29,148626.02661425152
2024-05-30,147828.04688583303
2024-05-31,145904.39353567734
2024-06-03,145819.646526726
2024-06-04,145009.9684316369
2024-06-05,148403.18844536413
2024-06-06,146626.50266037634
2024-06-07,145883.56901268056
2024-06-10,147885.6631688695
2024-06-11,147431.15570586172
2024-06-12,150297.72130526532
2024-06-13,149244.4285078105
2024-06-14,147711.44276062382
2024-06-17,148954.88205734623
2024-06-18,149898.21457687748
2024-06-20,147703.0278715191
2024-06-21,147121.52040256053
2024-06-24,145405.09226989298
2024-06-25,147917.01492161877
2024-06-26,146345.3296067671
2024-06-27,146539.89191350937
2024-06-28,145279.87455785082
2024-07-01,145655.3845327272
2024-07-02,146196.20969180006
2024-07-03,147968.64790873427
2024-07-05,148846.97306780715
2024-07-08,149155.0383468141
2024-07-09,149651.53595137497
2024-07-10,151685.78990164658
2024-07-11,148166.39837065598
2024-07-12,150109.48370112045
2024-07-15,151793.2488390433
2024-07-16,152661.36959207067
2024-07-17,145136.49434054905
2024-07-18,144573.00255202613
2024-07-19,144181.56278833732
2024-07-22,145457.029835075
2024-07-23,145434.5713822207
2024-07-24,141385.48939042608
2024-07-25,140413.28803987714
2024-07-26,141656.85851777857
2024-07-29,140923.21506806178
2024-07-30,140380.92101694123
2024-07-31,141310.71110097488
2024-08-01,139300.35974664337
2024-08-02,136084.49427804377
2024-08-05,133772.11098952484
2024-08-06,134524.11776815774
2024-08-07,133724.7273285276
2024-08-08,135695.03319476906
2024-08-09,136011.19059003465
2024-08-12,135913.65095467394
2024-08-13,136646.0118612749
2024-08-14,137239.27054543322
2024-08-15,137840.5640945464
2024-08-16,138708.63825841053
2024-08-19,139760.1055042941
2024-08-20,139629.09760399745
2024-08-21,140659.39073522505
2024-08-22,140273.5626159471
2024-08-23,141489.8817432874
2024-08-26,140924.73673043188
2024-08-27,141821.56991658147
2024-08-28,141181.63928399023
2024-08-29,142144.2567199224
2024-08-30,142853.28367934164
2024-09-03,139631.91715981803
2024-09-04,139327.74411727555
2024-09-05,138362.96032064466
2024-09-06,136340.4034897399
2024-09-09,138235.51287233084
2024-09-10,138441.53600329577
2024-09-11,139558.88073367297
2024-09-12,141406.46983243644
2024-09-13,143195.02352930198
2024-09-16,144828.43910446978
2024-09-17,145044.80398979998
2024-09-18,144775.4510826192
2024-09-19,145814.39691201068
2024-09-20,147304.3667043767
2024-09-23,148293.23742428637
2024-09-24,148566.7952999196
2024-09-25,149357.70942917682
2024-09-26,147750.83093872882
2024-09-27,148379.18804398394
2024-09-30,149480.07679787494
2024-10-01,149106.6834405446
2024-10-02,150147.96351203776
2024-10-03,150402.88747415942
2024-10-04,152446.71174346696
2024-10-07,150784.8540110672
2024-10-08,152482.9244974462
2024-10-09,152835.01411187186
2024-10-10,152359.3502533509
2024-10-11,155840.03308672534
2024-10-14,157948.8404941045
2024-10-15,156735.43622130784
2024-10-16,158994.16289443406
2024-10-17,157658.09323233995
2024-10-18,159228.0427753392
2024-10-21,160042.63654714648
2024-10-22,159078.278538448
2024-10-23,157851.0291106526
2024-10-24,159648.47557897007
2024-10-25,159214.12422594
2024-10-28,161540.13782299345
2024-10-29,162166.0863772225
2024-10-30,161540.89184611474
2024-10-31,159360.19901543742
2024-11-01,157944.77764390514
2024-11-04,156856.52020482946
2024-11-05,162591.49272129155
2024-11-06,170693.36159359838
2024-11-07,171803.51274048712
2024-11-08,180167.76988308047
2024-11-11,183893.8396393137
2024-11-12,181465.36155429555
2024-11-13,181890.6258612651
2024-11-14,181576.9114277466
2024-11-15,182020.44073362526
2024-11-18,182825.91653414388
2024-11-19,185450.25104659644
2024-11-20,185495.8880972251
2024-11-21,187922.55771773902
2024-11-22,191198.99376815406
2024-11-25,192079.48178905097
2024-11-26,191744.6920549784
2024-11-27,190091.00569945163
2024-11-29,191627.11431460973
2024-12-02,189180.38872676488
2024-12-03,190645.71538173693
2024-12-04,193045.0276321059
2024-12-05,192279.01745418843
2024-12-06,193185.80555919942
2024-12-09,187836.15439392172
2024-12-10,186283.75616035695
2024-12-11,189344.63553357753
2024-12-12,187667.89277685602
2024-12-13,189786.363726029
2024-12-16,191284.92149414652
2024-12-17,188003.96048988137
2024-12-18,178463.87385618722
2024-12-19,178516.8584699949
2024-12-20,180960.32882587647
2024-12-23,181542.02596623445
2024-12-24,183124.62307870697
2024-12-26,183926.34542696446
2024-12-27,181146.94422419957
2024-12-30,179342.91769920682
2024-12-31,178059.92634140348
2025-01-02,178571.78288058806
2025-01-03,181145.1694096427
2025-01-06,182063.51993197488
2025-01-07,178871.50805377052
2025-01-08,179280.90940946815
2025-01-10,176887.24585080863
2025-01-13,175973.11525852347
2025-01-14,176920.79538560275
2025-01-15,178436.62081933382
2025-01-16,179190.68644776705
2025-01-17,180905.13029817943
2025-01-21,184246.23838526133
2025-01-22,186397.43816477183
2025-01-23,187976.09136632137
2025-01-24,189435.17275498863
2025-01-27,174236.7597119875
2025-01-28,176989.24203468038
2025-01-29,177290.24067923715
2025-01-30,178894.01199633966
2025-01-31,176005.41508915392
2025-02-03,175919.95358560956
2025-02-04,178883.02728384017
2025-02-05,181082.82235050714
2025-02-06,183633.41134569497
2025-02-07,183339.80266674858
2025-02-10,184398.8884532007
2025-02-11,183205.9086373964
2025-02-12,184912.3074644236
2025-02-13,188932.18223686927
2025-02-14,189936.35102196448
2025-02-18,190616.68564148658
2025-02-19,188479.34619446768
2025-02-20,183110.40887392173
2025-02-21,175664.27397829274
2025-02-24,174359.02776706716
2025-02-25,172097.06102127233
2025-02-26,172802.1282384584
2025-02-27,171460.80293766694
2025-02-28,172386.8462579689
2025-03-03,171410.31769413786
2025-03-04,168939.99563072633
2025-03-05,169359.82921927611
2025-03-06,166446.2763647816
2025-03-07,166112.07784337323
2025-03-10,164664.9004065026
2025-03-11,163336.9755283069
2025-03-12,163121.095794842
2025-03-13,163033.38769364572
2025-03-14,163289.03038621164
2025-03-17,163780.11901745852
2025-03-18,163090.0967167776
2025-03-19,162984.64935578516
2025-03-20,162975.35082520655
2025-03-21,162669.67673365312
2025-03-24,163105.60676447587
2025-03-25,162988.77500123397
2025-03-26,162939.82757539168
2025-03-27,163197.72101182357
2025-03-28,162933.1339945607
2025-03-31,163379.1801877675
2025-04-01,163369.35717446182
2025-04-02,163306.00568630244
2025-04-03,163490.34716670524
2025-04-04,159500.70908537737
2025-04-07,158695.11026502575
2025-04-08,158572.43493772473
2025-04-09,158844.1598113715
2025-04-10,159123.6429465949
2025-04-11,159531.96015393132
2025-04-14,159869.55841189116
2025-04-15,159791.17462664336
2025-04-16,159703.4162369867
2025-04-17,159932.74375163513
2025-04-21,159158.75548609084
2025-04-22,159748.3262677986
2025-04-23,159292.5089018502
2025-04-24,159466.3582327523
2025-04-25,159168.81435466057
2025-04-28,159307.70909571892
2025-04-29,159941.77683967643
2025-04-30,161726.0381616556
2025-05-01,162187.5842204624
2025-05-02,165209.92671084937
2025-05-05,165251.50742045173
2025-05-06,164708.8191672156
2025-05-07,165388.99366672733
2025-05-08,166949.23837926792
2025-05-09,165576.22607133348
2025-05-12,167053.14797699908
2025-05-13,170780.2641336458
2025-05-14,171614.05983758456
2025-05-15,171884.89950299746
2025-05-16,173593.33581105713
2025-05-19,175482.69350949768
2025-05-20,175334.7816540807
2025-05-21,172325.6294805861
2025-05-22,172807.23560683825
2025-05-23,173244.45397632223
2025-05-27,176850.88923614123
2025-05-28,176844.19509570696
2025-05-29,174854.9075953255
2025-05-30,177527.82279174426
2025-06-02,179695.07422893145
2025-06-03,181322.94227283102
2025-06-04,181391.69370696644
2025-06-05,181569.11715831378
2025-06-06,183377.42162074664
2025-06-09,181680.5878395882
2025-06-10,179805.04461946612
2025-06-11,181840.4024020894
2025-06-12,180775.67642616015
2025-06-13,179091.7024541352
2025-06-16,181568.24029530646
2025-06-17,181105.42185011657
2025-06-18,182758.65232406222
2025-06-20,183168.63997601264
2025-06-23,185137.7475755759
2025-06-24,188091.43570213992
2025-06-25,187021.51464174566
2025-06-26,190406.99336511904
2025-06-27,191626.3296386481
2025-06-30,195595.72309796818
2025-07-01,190445.60946958073
2025-07-02,192280.38773386294
2025-07-03,194456.93061564481
2025-07-07,196002.3507721237
2025-07-08,193456.82670710597
2025-07-09,195650.21402087627
2025-07-10,194474.30373468244
2025-07-11,193944.56906202924
2025-07-14,197098.63160875355
2025-07-15,196770.84513594472
2025-07-16,198911.9048664745
2025-07-17,201733.6402160076
2025-07-18,203460.6735663036
2025-07-21,202489.6985997861
2025-07-22,198909.64911892224
2025-07-23,201861.5088813841
2025-07-24,201062.3309563799
2025-07-25,202559.45333784964
2025-07-28,203639.61623767056
2025-07-29,202284.9223689572
2025-07-30,206345.45189186063
2025-07-31,207683.31654258695
2025-08-01,202954.9009591531
2025-08-04,206797.6191455392
2025-08-05,204759.6804613098
2025-08-06,209232.5219350506
2025-08-07,209292.12873232173
2025-08-08,209965.69779485223
2025-08-11,209192.66359227654
2025-08-12,213076.2765855169
2025-08-13,211107.43435420893
2025-08-14,207274.07653846644
2025-08-15,206797.3313151881
2025-08-18,207423.79446016185
2025-08-19,201681.44089618148
2025-08-20,199890.19680541352
2025-08-21,200102.12695290498
2025-08-22,203367.40152326325
2025-08-25,204580.98587939152
2025-08-26,205981.5321850804
2025-08-27,205357.65966272628
2025-08-28,209727.1392149571
2025-08-29,206936.17098492343
2025-09-02,205982.13127999433
2025-09-03,206274.9743539865
2025-09-04,211512.2577551186
2025-09-05,211861.78816771024
2025-09-08,213569.46192526334
2025-09-09,217436.5070217171
2025-09-10,221272.24566154863
2025-09-11,223680.24707107927
2025-09-12,221902.62423324207
2025-09-15,225121.88767814258
2025-09-16,224492.61479285813
2025-09-17,225360.21663001634
2025-09-18,228414.09973243333
2025-09-19,230908.74358383013
2025-09-22,231995.29484866068
2025-09-23,229595.3752662327
2025-09-24,226268.11749323236
2025-09-25,223395.67763363058
2025-09-26,224529.99170997174
2025-09-29,229567.87910925038
2025-09-30,231163.15176102956
2025-10-01,234962.94231501516
2025-10-02,236120.17274561818
2025-10-03,233963.5115505918
2025-10-06,234561.109133458
2025-10-07,232032.77206913673
2025-10-08,236611.04682945774
2025-10-09,238328.40844876622
2025-10-10,228976.16228935285
2025-10-13,235910.76250145002
2025-10-14,233089.48529036297
2025-10-15,236266.73143751873
2025-10-16,235117.26255027886
2025-10-17,233654.38995084888
2025-10-20,235958.90656576282
2025-10-21,234372.13290209643
2025-10-22,229498.19070847364
2025-10-23,235628.84745247694
2025-10-24,239627.41129118446
2025-10-27,243861.67174695566
2025-10-28,243787.36121001415
2025-10-29,251354.05920684346
2025-10-30,246853.5570167342
2025-10-31,249082.20589806783
2025-11-03,251152.72488385043
2025-11-04,241401.88742452
2025-11-05,249407.3788104758
2025-11-06,245021.25028121634
2025-11-07,243505.8219660314
2025-11-10,249235.23918806203
2025-11-11,245593.02312634213
2025-11-12,245755.8739468835
2025-11-13,233887.58131929254
2025-11-14,233334.35948459865
2025-11-17,231995.64664916345
2025-11-18,230515.04534822964
2025-11-19,231800.210265968
2025-11-20,225356.62865299787
2025-11-21,227506.43065070963
2025-11-24,231259.0067856441
2025-11-25,232830.2548146363
2025-11-26,235469.81475359388
2025-11-28,237617.46517083282
2025-12-01,235458.2822511334
2025-12-02,234585.47990899815
2025-12-03,233703.41721565404
2025-12-04,234876.45090388405
2025-12-05,237723.38799709297
2025-12-08,238619.34834224396
2025-12-09,240423.45151183015
2025-12-10,244280.37395506745
2025-12-11,245649.892635701
2025-12-12,235602.93849107422
2025-12-15,235782.4534485022
2025-12-16,234826.07472743807
2025-12-17,229837.5738680431
2025-12-18,234295.7319760999
2025-12-19,238840.63843590824
2025-12-22,241548.67986733525
2025-12-23,241021.53430360538
2025-12-24,242052.84468552837
2025-12-26,241884.19276902446
2025-12-29,239377.8205041624
2025-12-30,238028.9910670973
2025-12-31,235434.71883994824
2026-01-02,240476.39211829845
2026-01-05,241498.12875029596
2026-01-06,250258.2874750445
2026-01-07,247273.54596704227
2026-01-08,241529.99637777585
2026-01-09,246304.11408627528
2026-01-12,250951.09988421533
2026-01-13,253150.42259043787
2026-01-14,251193.8594094839
2026-01-15,253246.8440786123
2026-01-16,253698.79570728968
2026-01-20,251197.3200050993
2026-01-21,255882.09736605905
2026-01-22,254903.5486163095
2026-01-23,254353.82058705844
2026-01-26,255165.1481056894
2026-01-27,261466.56671778456
2026-01-28,265518.7539282115
2026-01-29,265191.12349733384
2026-01-30,254138.6264504256
2026-02-02,259091.18808028035
2026-02-03,262307.83349283494
2026-02-04,255405.40729593066
2026-02-05,254458.9273305043
2026-02-06,263704.89387560927
2026-02-09,267909.4209639374
2026-02-10,264274.8748363764
2026-02-11,267322.0991730367
2026-02-12,264281.03047208086
2026-02-13,268088.3259912729
2026-02-17,267148.550025237
2026-02-18,270089.2823174123
2026-02-19,271295.67386245576
2026-02-20,275092.87783400214
2026-02-23,275150.0747699496
2026-02-24,278432.43494171154
2026-02-25,281870.0974678422
2026-02-26,278532.8001863796
2026-02-27,277714.2636875417
2026-03-02,279718.4175876882
2026-03-03,268309.21757876675
2026-03-04,271116.5735141696
2026-03-05,262837.32323867106
2026-03-06,256353.44835208872
2026-03-09,261836.59032428137
2026-03-10,263368.56781864224
2026-03-11,264646.1966517406
2026-03-12,262912.83441268594
2026-03-13,262694.2881133085
2026-03-16,267869.83082193113
2026-03-17,268742.91337012703
2026-03-18,271330.9904127193
2026-03-19,275125.1852802578
2026-03-20,265999.53975807154
2026-03-23,266263.6174889968
2026-03-24,274498.2390089608
2026-03-25,274766.32000617334
2026-03-26,265501.97109128686
2026-03-27,266914.65206815454
2026-03-30,258609.18040329096
2026-03-31,260063.09416061518
2026-04-01,259495.14106465303
2026-04-02,263987.63538768137
2026-04-06,263953.6011757405
2026-04-07,266893.8440792592
2026-04-08,268767.98656188627
2026-04-09,269121.6450175061
2026-04-10,272265.54603191034
2026-04-13,276296.6193160595
2026-04-14,278634.72038646357
2026-04-15,276194.5351928372
2026-04-16,281377.4686607502
2026-04-17,277295.5700307676
2026-04-20,278286.0134913832
2026-04-21,279362.61108255445
2026-04-22,285572.6508011824
2026-04-23,287173.75429213245
2026-04-24,289894.0523871208
2026-04-27,289984.73505801917
2026-04-28,279783.26692589134
2026-04-29,288700.58231828635
2026-04-30,296682.75860171585
2026-05-01,299652.25830035476
2026-05-04,301868.96255328564
2026-05-05,312124.79507824907
2026-05-06,321227.4334199433
2026-05-07,308700.2745211344
2026-05-08,320214.7278878398
2026-05-11,329555.3968704312
2026-05-12,320352.7054911831
2026-05-13,323558.93693380244
2026-05-14,324911.6366309155
2026-05-15,315757.9248430953
2026-05-18,306607.88606987876
2026-05-19,304456.33542832604
2026-05-20,310948.2636631386
2026-05-21,313638.80410363455
2026-05-22,318747.92549518496
2026-05-26,328540.341337165
2026-05-27,326147.57937808905
2026-05-28,327929.8862085795
2026-05-29,333748.6898913184
2026-06-01,339100.19510982424
2026-06-02,351261.0795729895
2026-06-03,353429.72779188235
2026-06-04,347859.3243696448
2026-06-05,323133.55827340856
2026-06-08,330184.2486191727
2026-06-09,323426.263277559
2026-06-10,316871.53286356776
2026-06-11,331596.4979555379
2026-06-12,336143.0956141683
2026-06-15,345377.02712136565
2026-06-16,334961.05380059
2026-06-17,337052.7377834391
2026-06-18,347169.80122820963
2026-06-22,355034.06138168985
2026-06-23,336260.92383659515
2026-06-24,335652.98394096526
2026-06-25,343076.05660949193
2026-06-26,328409.04392488685
2026-06-29,342142.6950784513
2026-06-30,351106.14500911534
2026-07-01,334698.18570334045
2026-07-02,317584.37311185605
2026-07-06,320767.13788999326
2026-07-07,313800.5049579362
2026-07-08,313941.1296307369
2026-07-09,319068.27023494674
2026-07-10,316711.92269338184
2026-07-13,313370.6753737342
2026-07-14,319138.6429541096
2026-07-15,313239.10946837656
2026-07-16,310009.2545010331
2026-07-17,310630.4549013557
2026-07-20,308795.27807523217
2026-07-21,310681.56288757955
2026-07-22,309657.7829229266
2026-07-23,307167.5697020488
2026-07-24,304717.6166334148
2026-07-27,302757.94431283005
2026-07-28,302293.35413643386
2026-07-29,301359.44657534343
2026-07-30,303264.6245638536
2026-07-31,301789.6792594675
2026-08-03,301689.12534669775
2026-08-04,306677.2999973319
2026-08-05,303680.80839105137
2026-08-06,298962.4507832738
2026-08-07,301819.5553169419
2026-08-10,306699.3415542789
2026-08-11,308074.2274156526
2026-08-12,310182.4218698457
2026-08-13,314476.94568881544
2026-08-14,311517.87638434157
2026-08-17,310419.71213771374
2026-08-18,307165.4505523504
2026-08-19,305195.0595308441
2026-08-20,303153.90836779063
2026-08-21,306310.4596452259
2026-08-24,303267.2043385395
2026-08-25,303344.5059928211
2026-08-26,305904.9493660816
2026-08-27,308631.4340291675
2026-08-28,304676.1114552119
2026-08-31,305939.949541775
2026-09-01,301818.5800646937
2026-09-02,299410.03418499883
2026-09-03,301652.8314775818
2026-09-04,298072.33069982275
2026-09-08,295182.64941482036
2026-09-09,294662.7145302073
2026-09-10,290106.6033132884
2026-09-11,294171.7210124986
2026-09-14,289597.6526495683
2026-09-15,293414.25585199136
2026-09-16,295389.6289713456
2026-09-17,303086.7152156083
2026-09-18,301910.99261657876
2026-09-21,304595.8366145341
2026-09-22,305077.90713588113
2026-09-23,306029.4688233506
2026-09-24,309499.2471293199
2026-09-25,309084.71066267556
2026-09-28,307147.24425572366
2026-09-29,309481.7090498826
2026-09-30,309587.17457455606
2026-10-01,313194.4032599351
