,equity
2023-10-02,100000.0
2023-10-03,99520.17477518035
2023-10-04,99736.66623772171
2023-10-05,99837.38108670307
2023-10-06,100954.15136361726
2023-10-09,101714.62216177682
2023-10-10,102215.48287001351
2023-10-11,102519.05430403451
2023-10-12,101989.08014288644
2023-10-13,100880.24305586558
2023-10-16,101522.08140920813
2023-10-17,101972.98380445654
2023-10-18,100913.88579827672
2023-10-19,99730.87920251864
2023-10-20,98597.04209893638
2023-10-23,98670.46591392822
2023-10-24,98904.87315378874
2023-10-25,97322.85601742825
2023-10-26,96786.68703246118
2023-10-27,96566.23419602014
2023-10-30,96773.00247249179
2023-10-31,97017.92333921141
2023-11-01,97831.9349400056
2023-11-02,98059.14536713334
2023-11-03,98580.89181565019
2023-11-06,98892.00432938308
2023-11-07,99069.69679471513
2023-11-08,99030.54739591142
2023-11-09,99321.44346829911
2023-11-10,100301.18278333207
2023-11-13,100390.42833539506
2023-11-14,100957.92698499223
2023-11-15,101123.1944715645
2023-11-16,101210.87759610673
2023-11-17,101662.93332501908
2023-11-20,102927.3638174202
2023-11-21,102186.39930554887
2023-11-22,102755.08693143388
2023-11-24,103080.73401853105
2023-11-27,103293.96576138993
2023-11-28,104144.38930722733
2023-11-29,104258.84143082352
2023-11-30,104333.79618207474
2023-12-01,104889.3067068245
2023-12-04,104777.08770445938
2023-12-05,104958.88063990709
2023-12-06,103107.6115004039
2023-12-07,103588.77096485328
2023-12-08,104974.28136033057
2023-12-11,104854.72801083564
2023-12-12,105264.61797589301
2023-12-13,106677.8362919712
2023-12-14,106752.19357219886
2023-12-15,106735.26080150795
2023-12-18,107652.45477695655
2023-12-19,108496.76583309364
2023-12-20,107171.51263184546
2023-12-21,108467.39417510413
2023-12-22,108485.43051772498
2023-12-26,108644.64469723548
2023-12-27,109692.04151835511
2023-12-28,109712.93281092713
2023-12-29,108478.94605285829
2024-01-02,107553.76868408833
2024-01-03,106610.81637161884
2024-01-04,106999.18557999286
2024-01-05,107046.77377579364
2024-01-08,108930.72792569027
2024-01-09,109557.7299123846
2024-01-10,109893.47380505428
2024-01-11,110456.05123959408
2024-01-12,110340.23166714534
2024-01-16,110392.62522946224
2024-01-17,109513.79670513363
2024-01-18,110380.12885772152
2024-01-19,113296.72544585628
2024-01-22,113800.40379058284
2024-01-23,114259.98594008846
2024-01-24,114982.56812011165
2024-01-25,115451.18874846859
2024-01-26,114822.21618853207
2024-01-29,115848.64739522761
2024-01-30,115895.7982359869
2024-01-31,114799.71445814724
2024-02-01,116597.6739647366
2024-02-02,117778.71759724393
2024-02-05,118747.29006886258
2024-02-06,118756.93043446317
2024-02-07,120138.63174366727
2024-02-08,120775.64697956815
2024-02-09,122421.33606648221
2024-02-12,122177.11604237332
2024-02-13,121478.49959969021
2024-02-14,124015.18086927559
2024-02-15,125966.69251363899
2024-02-16,123841.19593555061
2024-02-20,122811.26328712839
2024-02-21,119963.46810139423
2024-02-22,123025.5582971527
2024-02-23,125450.39157485504
2024-02-26,126667.53965186614
2024-02-27,128759.67540931243
2024-02-28,128218.63621520538
2024-02-29,129861.46357154388
2024-03-01,133537.1898651077
2024-03-04,135092.59685515898
2024-03-05,132957.71771979216
2024-03-06,134509.87534792497
2024-03-07,136047.76619036272
2024-03-08,135772.72489817216
2024-03-11,133770.0607078798
2024-03-12,135399.44170820023
2024-03-13,136796.38595919817
2024-03-14,135699.09167882887
2024-03-15,135024.95701263778
2024-03-18,135402.9572427519
2024-03-19,135572.96484954818
2024-03-20,138005.11805541976
2024-03-21,139314.5441208647
2024-03-22,139288.74623115524
2024-03-25,139759.01806838973
2024-03-26,139063.1088925169
2024-03-27,138730.4678822325
2024-03-28,139094.34858520492
2024-04-01,138996.76848609908
2024-04-02,138164.1786042021
2024-04-03,139954.70711143478
2024-04-04,138515.29142848187
2024-04-05,140536.5640243398
2024-04-08,140718.55514753927
2024-04-09,139454.84471076255
2024-04-10,138731.07590361228
2024-04-11,140086.1591073476
2024-04-12,137782.35666853597
2024-04-15,135801.71774589134
2024-04-16,136381.92249933982
2024-04-17,134774.17091943475
2024-04-18,133916.6220442654
2024-04-19,132374.06346831474
2024-04-22,132746.42585489462
2024-04-23,133615.90223861398
2024-04-24,133172.07471060118
2024-04-25,133378.56945115063
2024-04-26,133886.507008068
2024-04-29,133913.17183127205
2024-04-30,132680.11071740062
2024-05-01,131954.02027209685
2024-05-02,132766.53481514775
2024-05-03,134001.0209227256
2024-05-06,134992.56005770486
2024-05-07,134179.2624464683
2024-05-08,134132.4282751731
2024-05-09,135706.00512987893
2024-05-10,135471.6183005027
2024-05-13,135117.6841574363
2024-05-14,135470.5900107078
2024-05-15,136608.90499636452
2024-05-16,135506.48057289104
2024-05-17,135290.36848363638
2024-05-20,136173.93600759268
2024-05-21,136149.21031484366
2024-05-22,135057.55973693228
2024-05-23,135321.50941811095
2024-05-24,137093.89540795796
2024-05-28,137085.9149563741
2024-05-29,136879.1632067046
2024-05-30,136252.40720788515
2024-05-31,134331.80511707277
2024-06-03,133897.09324316314
2024-06-04,133215.800563937
2024-06-05,135351.54174975894
2024-06-06,134692.6869695618
2024-06-07,133837.00532492372
2024-06-10,135640.65165935594
2024-06-11,134841.02819155963
2024-06-12,136768.7046141061
2024-06-13,136509.19378345576
2024-06-14,135449.54443290032
2024-06-17,136559.6296776208
2024-06-18,137513.60018238152
2024-06-20,135720.12521061028
2024-06-21,135068.35839910212
2024-06-24,133403.4795607702
2024-06-25,135108.19639925758
2024-06-26,134142.2504484955
2024-06-27,134323.1142415024
2024-06-28,134193.52859748996
2024-07-01,134640.12667335666
2024-07-02,134882.32001365817
2024-07-03,136172.70511879123
2024-07-05,135964.90908302463
2024-07-08,135880.07226432956
2024-07-09,136307.26058258212
2024-07-10,137051.74047737278
2024-07-11,135338.49188226747
2024-07-12,136276.0511912732
2024-07-15,137291.93102507447
2024-07-16,137524.93952829955
2024-07-17,132172.13035476342
2024-07-18,131737.18250440512
2024-07-19,132209.31271329155
2024-07-22,133456.30175841847
2024-07-23,132858.962188373
2024-07-24,130130.56616764014
2024-07-25,129217.65996350562
2024-07-26,130176.4429119971
2024-07-29,129646.21004134708
2024-07-30,129091.84050610411
2024-07-31,130055.03059863663
2024-08-01,128581.76778938674
2024-08-02,126690.03430286958
2024-08-05,125240.99010553627
2024-08-06,126130.02645528084
2024-08-07,125479.58186375862
2024-08-08,127308.29346120125
2024-08-09,127546.24647938972
2024-08-12,127535.82790410286
2024-08-13,128185.90811574226
2024-08-14,128535.20247304207
2024-08-15,128974.66832768684
2024-08-16,129445.85819279915
2024-08-19,130149.68810689216
2024-08-20,130194.39765584236
2024-08-21,130565.82845341926
2024-08-22,130557.82372319466
2024-08-23,131258.43830525642
2024-08-26,131170.29750478035
2024-08-27,131739.5993503309
2024-08-28,131457.76783406502
2024-08-29,131716.05085026985
2024-08-30,131692.91640126472
2024-09-03,130466.30967137581
2024-09-04,130624.34248547399
2024-09-05,130020.33375363195
2024-09-06,128756.62629843724
2024-09-09,129382.43671860949
2024-09-10,129484.41249703823
2024-09-11,129443.72431988978
2024-09-12,130243.21117325663
2024-09-13,130991.61875035868
2024-09-16,131967.9017312068
2024-09-17,131905.08221216383
2024-09-18,132131.88451166335
2024-09-19,132583.65236063185
2024-09-20,134028.36662073317
2024-09-23,134648.7390877742
2024-09-24,134828.91169519606
2024-09-25,134845.9279686946
2024-09-26,133941.76759119215
2024-09-27,134590.47981805983
2024-09-30,134946.70198221388
2024-10-01,134865.83125530044
2024-10-02,135723.43078946677
2024-10-03,135922.67703798666
2024-10-04,137115.93423950952
2024-10-07,135977.7078680648
2024-10-08,137634.78885507194
2024-10-09,137846.94100240775
2024-10-10,137503.16438531317
2024-10-11,139583.92147625212
2024-10-14,141493.4355982614
2024-10-15,140804.32602108244
2024-10-16,142532.9729632211
2024-10-17,141887.12849033598
2024-10-18,142215.31204403166
2024-10-21,142087.66205967191
2024-10-22,141678.9423151727
2024-10-23,140804.4873695519
2024-10-24,141722.24737359548
2024-10-25,141246.50557741476
2024-10-28,142459.33589216822
2024-10-29,142660.23802801722
2024-10-30,142268.32766577357
2024-10-31,139860.10807654017
2024-11-01,139467.38925692195
2024-11-04,139141.47841459105
2024-11-05,142364.80610559648
2024-11-06,147604.35756815138
2024-11-07,149450.13000090592
2024-11-08,156877.59384425156
2024-11-11,158174.2969377803
2024-11-12,156286.78954217333
2024-11-13,157562.16445004838
2024-11-14,157027.5842130562
2024-11-15,156458.1560657297
2024-11-18,158729.93975726666
2024-11-19,161134.1816319615
2024-11-20,160957.22538272443
2024-11-21,162697.47753802838
2024-11-22,164920.4041470677
2024-11-25,165675.46250430646
2024-11-26,165196.112963596
2024-11-27,165168.16483203473
2024-11-29,166660.555907169
2024-12-02,165646.6735257298
2024-12-03,167344.58218280377
2024-12-04,170583.87655536234
2024-12-05,169348.7402104527
2024-12-06,170711.39027301373
2024-12-09,166544.5743866441
2024-12-10,164447.63531071634
2024-12-11,166388.91916031056
2024-12-12,165611.78134106618
2024-12-13,167774.66481352822
2024-12-16,168805.63600668008
2024-12-17,166264.71318204506
2024-12-18,159920.53695479519
2024-12-19,159513.93175226526
2024-12-20,160683.7813443562
2024-12-23,160855.78418249096
2024-12-24,161440.37449818003
2024-12-26,162300.99635619274
2024-12-27,160447.70325164174
2024-12-30,158985.35521845546
2024-12-31,158068.19357031252
2025-01-02,158924.71557913208
2025-01-03,160848.9897485084
2025-01-06,161635.36788800426
2025-01-07,159595.5720225105
2025-01-08,158985.95667180812
2025-01-10,157386.95628149025
2025-01-13,157253.24376818456
2025-01-14,158229.20641345344
2025-01-15,159917.84488303852
2025-01-16,160397.00992950075
2025-01-17,161963.85259994143
2025-01-21,164262.63447555178
2025-01-22,165581.23189147585
2025-01-23,166536.3233488428
2025-01-24,166322.5271833765
2025-01-27,158764.10030934977
2025-01-28,159860.11250875163
2025-01-29,160114.30437378355
2025-01-30,160889.99731182132
2025-01-31,159698.64383666264
2025-02-03,159841.829720104
2025-02-04,160876.67683423974
2025-02-05,161553.66439832665
2025-02-06,164960.64881910302
2025-02-07,164400.32983221032
2025-02-10,164562.9889642141
2025-02-11,164051.2168461893
2025-02-12,165784.75339220674
2025-02-13,168489.45625399263
2025-02-14,170380.83422182707
2025-02-18,170861.55126665742
2025-02-19,169581.39735384614
2025-02-20,165948.6217039209
2025-02-21,162049.87677280512
2025-02-24,160255.18905686183
2025-02-25,158649.62045932587
2025-02-26,159119.07614629695
2025-02-27,157966.31084101798
2025-02-28,159655.34033937164
2025-03-03,158471.68032045075
2025-03-04,155439.97237368498
2025-03-05,155887.5516234768
2025-03-06,153702.50218035013
2025-03-07,153721.86794744077
2025-03-10,153258.46625861703
2025-03-11,152443.68581544605
2025-03-12,152023.7955110654
2025-03-13,151766.71390279743
2025-03-14,152336.3490041158
2025-03-17,153123.7447699462
2025-03-18,152545.03122469518
2025-03-19,152813.11186709002
2025-03-20,152878.21770586565
2025-03-21,152274.93740572527
2025-03-24,152963.86967577532
2025-03-25,152654.1044189174
2025-03-26,152630.52968048357
2025-03-27,152554.398906451
2025-03-28,152594.9306274637
2025-03-31,153641.94214897288
2025-04-01,153467.34723806896
2025-04-02,153929.38782785315
2025-04-03,152142.16681231483
2025-04-04,147242.16421154927
2025-04-07,146601.38942038277
2025-04-08,146513.70832767893
2025-04-09,146666.77406534555
2025-04-10,146740.06589695718
2025-04-11,147113.31644434767
2025-04-14,147524.0744174348
2025-04-15,147416.53585931504
2025-04-16,146903.824582841
2025-04-17,147046.20222834082
2025-04-21,145616.74771207361
2025-04-22,147414.54673657374
2025-04-23,147286.58565411525
2025-04-24,148184.38478360133
2025-04-25,148299.26460919337
2025-04-28,148519.06950650172
2025-04-29,149215.71759686427
2025-04-30,149956.87194333033
2025-05-01,149436.35825238185
2025-05-02,150223.22321209864
2025-05-05,149960.53051648097
2025-05-06,150161.42225155787
2025-05-07,150754.11337552028
2025-05-08,149978.50656360012
2025-05-09,149981.18035457504
2025-05-12,148385.77791760315
2025-05-13,149210.57847309913
2025-05-14,149531.69098258787
2025-05-15,150616.7876012402
2025-05-16,151544.6629140454
2025-05-19,151666.1174123364
2025-05-20,151627.6344487744
2025-05-21,150805.19253135496
2025-05-22,150439.61773277097
2025-05-23,150140.1625637622
2025-05-27,150989.6100672782
2025-05-28,150556.00065794593
2025-05-29,150149.6768893302
2025-05-30,151549.8524302543
2025-06-02,152416.8547686637
2025-06-03,151997.53718196327
2025-06-04,151558.09824066385
2025-06-05,151676.78368264635
2025-06-06,152200.41279642322
2025-06-09,151079.11482079455
2025-06-10,150544.0233097167
2025-06-11,151444.55140496205
2025-06-12,151602.46905327748
2025-06-13,151423.74113274526
2025-06-16,152592.62206136464
2025-06-17,151666.75717022124
2025-06-18,152153.3550723552
2025-06-20,152291.3430275821
2025-06-23,153696.85440300935
2025-06-24,155163.83416604035
2025-06-25,153818.50013532443
2025-06-26,155398.20649941784
2025-06-27,154921.471216764
2025-06-30,156771.9657846351
2025-07-01,153608.60781065898
2025-07-02,154222.769022849
2025-07-03,155764.29595597737
2025-07-07,157206.15715058797
2025-07-08,155360.36230119222
2025-07-09,157430.87739265338
2025-07-10,156373.41271281158
2025-07-11,155645.19950389836
2025-07-14,158312.47223567936
2025-07-15,157223.3890447614
2025-07-16,159229.51410579655
2025-07-17,160948.91866146063
2025-07-18,161640.59114010594
2025-07-21,161550.58516633994
2025-07-22,159433.45823002205
2025-07-23,160334.31341935555
2025-07-24,161980.2474040105
2025-07-25,163495.95446474742
2025-07-28,163966.4218490858
2025-07-29,163355.02032162
2025-07-30,165680.89445904063
2025-07-31,166359.7450246534
2025-08-01,161338.458276327
2025-08-04,164860.9016242579
2025-08-05,164296.10071929346
2025-08-06,167680.53090379696
2025-08-07,167051.53780145754
2025-08-08,168057.40511764254
2025-08-11,167096.92393172946
2025-08-12,170006.57751907076
2025-08-13,169160.6945043918
2025-08-14,166867.77477015412
2025-08-15,166546.87378874695
2025-08-18,167328.78154555237
2025-08-19,163226.72330259584
2025-08-20,162778.85887355238
2025-08-21,163240.4769571877
2025-08-22,165886.77563747705
2025-08-25,165818.0508068496
2025-08-26,166794.00708278955
2025-08-27,166743.00369915308
2025-08-28,169278.82501873316
2025-08-29,169146.10942153467
2025-09-02,167850.4655212051
2025-09-03,168485.79936618428
2025-09-04,172738.16240329365
2025-09-05,173088.49161485294
2025-09-08,174156.66702116397
2025-09-09,176272.64890898135
2025-09-10,177954.73387425998
2025-09-11,179095.90431041722
2025-09-12,177420.4296647187
2025-09-15,180606.73387244367
2025-09-16,180714.896645576
2025-09-17,181289.3207559886
2025-09-18,183938.19905951642
2025-09-19,186276.12230017805
2025-09-22,186955.79946997785
2025-09-23,184525.07916698957
2025-09-24,182660.86744760722
2025-09-25,180552.98847727914
2025-09-26,181831.51225919783
2025-09-29,186194.44439001143
2025-09-30,186619.17304137556
2025-10-01,186793.23439142745
2025-10-02,188185.2352867369
2025-10-03,187539.5634565367
2025-10-06,187790.1379215218
2025-10-07,186534.9486887337
2025-10-08,189992.4531519295
2025-10-09,189878.04896552814
2025-10-10,183192.16314835742
2025-10-13,186268.58588357165
2025-10-14,184622.0125029423
2025-10-15,185473.4310711629
2025-10-16,185010.10136001752
2025-10-17,184114.26678466375
2025-10-20,186116.54668288762
2025-10-21,183816.10949552542
2025-10-22,180430.8824418282
2025-10-23,184208.61299009938
2025-10-24,188547.82148343703
2025-10-27,190884.17395955703
2025-10-28,191444.68772679946
2025-10-29,194732.99079496044
2025-10-30,189952.61775379223
2025-10-31,191588.4541223046
2025-11-03,194090.42937235037
2025-11-04,187604.02864104178
2025-11-05,190956.57593555166
2025-11-06,188123.35214784252
2025-11-07,187328.0002858571
2025-11-10,190451.76078414812
2025-11-11,188758.55615882768
2025-11-12,189321.20661850175
2025-11-13,183843.93468452225
2025-11-14,184429.1103518037
2025-11-17,183234.32947564404
2025-11-18,181895.37942931836
2025-11-19,182040.25990096407
2025-11-20,177605.3644496457
2025-11-21,178932.62857418566
2025-11-24,182358.9761868412
2025-11-25,183432.40838631935
2025-11-26,184382.4026738102
2025-11-28,185200.1468926365
2025-12-01,183879.77012421913
2025-12-02,182762.2489896824
2025-12-03,182944.62930380524
2025-12-04,184115.90011483323
2025-12-05,185562.58944016587
2025-12-08,186087.61619835984
2025-12-09,186944.53947065293
2025-12-10,190791.69354200544
2025-12-11,191668.82680273236
2025-12-12,184868.38592738507
2025-12-15,185538.27636355755
2025-12-16,184512.36515243805
2025-12-17,181492.87197337067
2025-12-18,184503.22027611214
2025-12-19,187953.64792465646
2025-12-22,190461.92070412118
2025-12-23,189893.73178621958
2025-12-24,190784.49256274206
2025-12-26,190452.40200755102
2025-12-29,189452.0561823557
2025-12-30,188529.6200286234
2025-12-31,187164.1653461665
2026-01-02,191364.47301057994
2026-01-05,192372.52845106306
2026-01-06,198595.14071907604
2026-01-07,195456.50412460693
2026-01-08,192730.9300129406
2026-01-09,195969.06721997185
2026-01-12,198011.72203564568
2026-01-13,199341.04674649163
2026-01-14,198198.5685703747
2026-01-15,201286.73426556512
2026-01-16,201997.97645648307
2026-01-20,199493.2519464602
2026-01-21,203348.14809803347
2026-01-22,203268.71735004763
2026-01-23,201854.26047710757
2026-01-26,200919.15554432254
2026-01-27,206657.6395702472
2026-01-28,210440.5365309358
2026-01-29,210598.8614248872
2026-01-30,205205.45826591138
2026-02-02,208249.76226159156
2026-02-03,208470.86127906883
2026-02-04,204350.52401163516
2026-02-05,202166.69931929238
2026-02-06,209678.70298264717
2026-02-09,212837.4113871882
2026-02-10,208322.4281329615
2026-02-11,211296.10512257935
2026-02-12,211009.9894900116
2026-02-13,212734.98661205138
2026-02-17,212675.9499400816
2026-02-18,213808.77593838787
2026-02-19,214385.0384544096
2026-02-20,216582.70656621075
2026-02-23,216542.13736477186
2026-02-24,218347.0343857935
2026-02-25,219375.13785373478
2026-02-26,217483.12516032963
2026-02-27,217869.36216053716
2026-03-02,220729.14077496264
2026-03-03,213892.50947656724
2026-03-04,213973.02591473132
2026-03-05,210259.09332341445
2026-03-06,207349.7997331833
2026-03-09,210556.55759026966
2026-03-10,210469.75634508318
2026-03-11,211076.33253006698
2026-03-12,208931.946857307
2026-03-13,208961.98288602402
2026-03-16,213135.7193130296
2026-03-17,213348.02006757673
2026-03-18,214320.2320638536
2026-03-19,216650.71241803368
2026-03-20,211663.4434749466
2026-03-23,213102.96277311875
2026-03-24,217995.18089291803
2026-03-25,217915.40409466974
2026-03-26,212058.89001538506
2026-03-27,213546.08570897093
2026-03-30,208988.5544688565
2026-03-31,209116.73679171444
2026-04-01,207642.4871334107
2026-04-02,210295.62822449757
2026-04-06,209577.78491700246
2026-04-07,211175.07937256887
2026-04-08,209707.04197848597
2026-04-09,209143.7650434567
2026-04-10,211652.46292820852
2026-04-13,215477.35799525114
2026-04-14,219254.16154800076
2026-04-15,217806.17401894543
2026-04-16,221188.25545956485
2026-04-17,218500.5398053443
2026-04-20,220712.76682695583
2026-04-21,220648.72954210476
2026-04-22,224366.5728343411
2026-04-23,227336.96016344265
2026-04-24,227552.56116899685
2026-04-27,227983.81057390408
2026-04-28,220988.86526893824
2026-04-29,231420.59402870387
2026-04-30,237753.30324803013
2026-05-01,241386.36082707066
2026-05-04,245162.604509932
2026-05-05,250775.2771406693
2026-05-06,260841.19022398227
2026-05-07,251429.902777623
2026-05-08,257065.00410348971
2026-05-11,265515.2625438889
2026-05-12,258012.00916471652
2026-05-13,260745.15088514506
2026-05-14,261567.88727929367
2026-05-15,255522.9524221312
2026-05-18,248245.42475796296
2026-05-19,247431.50309019335
2026-05-20,249578.51493864306
2026-05-21,254526.58666590747
2026-05-22,257152.75339332863
2026-05-26,260775.00132168096
2026-05-27,258455.75401714607
2026-05-28,258787.33188502022
2026-05-29,259289.3969894884
2026-06-01,260641.01536212512
2026-06-02,269722.65568150685
2026-06-03,272005.087633106
2026-06-04,267156.72442567185
2026-06-05,252213.48463317228
2026-06-08,255726.7466113217
2026-06-09,251245.97315967784
2026-06-10,245936.1193538301
2026-06-11,253927.4093662667
2026-06-12,256312.2582584786
2026-06-15,260133.5258518624
2026-06-16,255643.59519837424
2026-06-17,255898.1082047829
2026-06-18,260003.83082847064
2026-06-22,265227.53561272175
2026-06-23,255100.02735701497
2026-06-24,254575.38586901815
2026-06-25,256146.20961802488
2026-06-26,248272.04842360655
2026-06-29,255187.76295527158
2026-06-30,260893.37009964354
2026-07-01,249204.48974621945
2026-07-02,240970.5382426855
2026-07-06,242810.17562403315
2026-07-07,236765.51566289057
2026-07-08,236735.60817649175
2026-07-09,241817.50555991198
2026-07-10,239904.8573932555
2026-07-13,236037.78277461167
2026-07-14,239612.08303455802
2026-07-15,237479.33638839406
2026-07-16,237428.37346600028
2026-07-17,236269.42986534585
2026-07-20,234573.75069552468
2026-07-21,235795.43238192605
2026-07-22,235606.72027712868
2026-07-23,234265.40750819253
2026-07-24,233197.05986588533
2026-07-27,232043.33414044604
2026-07-28,230897.18399477104
2026-07-29,230041.19747579293
2026-07-30,230384.68384019844
2026-07-31,229993.33873854438
2026-08-03,229574.66155879584
2026-08-04,230861.01257960883
2026-08-05,230089.3798052558
2026-08-06,228425.79869103612
2026-08-07,228036.93259453954
2026-08-10,229911.2867357749
2026-08-11,230407.0911257285
2026-08-12,230957.00259423436
2026-08-13,231772.07671380223
2026-08-14,231353.60894733196
2026-08-17,231092.97424051433
2026-08-18,229354.34553891522
2026-08-19,229728.3937863151
2026-08-20,229340.1418015129
2026-08-21,230309.47747961347
2026-08-24,229457.3029114372
2026-08-25,229770.3013855583
2026-08-26,230441.06199316328
2026-08-27,230681.8381112053
2026-08-28,229462.2920525505
2026-08-31,229679.78456811447
2026-09-01,228657.13498551102
2026-09-02,229365.59619766922
2026-09-03,228979.27669586867
2026-09-04,228556.74681915969
2026-09-08,229147.1591726753
2026-09-09,229337.75344147414
2026-09-10,228394.11293854445
2026-09-11,228817.00450958937
2026-09-14,228394.09029450148
2026-09-15,230274.2088552925
2026-09-16,230661.45037140578
2026-09-17,232198.1483084175
2026-09-18,231253.76377912064
2026-09-21,231765.5367429268
2026-09-22,230692.25221662066
2026-09-23,232303.4131510689
2026-09-24,233217.7616061165
2026-09-25,232662.29133023758
2026-09-28,232761.65064420243
2026-09-29,232573.9639863997
2026-09-30,233347.78107883746
2026-10-01,235216.77302106767
2026-10-02,239360.4737794295
